499.88436,0.21135
501.92471,0.15652
503.96505,0.10651
506.00540,0.02910
508.04574,0.03987
510.08609,0.10909
512.12643,0.15056
514.16677,0.10157
516.20712,0.14969
518.24746,0.22803
520.28781,0.18163
522.32815,0.08641
524.36850,0.13111
526.40884,0.13658
528.44918,0.09930
530.48953,0.07652
532.52987,0.26071
534.57022,0.40647
536.61056,0.34434
538.65091,0.21054
540.69125,0.18762
542.73159,0.21752
544.77194,0.20677
546.81228,0.17360
548.85263,0.19352
550.89297,0.24520
552.93332,0.25710
554.97366,0.23164
557.01400,0.20835
559.05435,0.20691
561.09469,0.22990
563.13504,0.25438
565.17538,0.25412
567.21573,0.24167
569.25607,0.23837
571.29642,0.24084
573.33676,0.24113
575.37710,0.23941
577.41745,0.22652
579.45779,0.20367
581.49814,0.19333
583.53848,0.19785
585.57883,0.20461
587.61917,0.21227
589.65951,0.21460
591.69986,0.20798
593.74020,0.20368
595.78055,0.20754
597.82089,0.20932
599.86124,0.19638
601.90158,0.17568
603.94192,0.16790
605.98227,0.17516
608.02261,0.18371
610.06296,0.18903
612.10330,0.18963
614.14365,0.18470
616.18399,0.18360
618.22434,0.18822
620.26468,0.19164
622.30502,0.19365
624.34537,0.19444
626.38571,0.19374
628.42606,0.19273
630.46640,0.19207
632.50675,0.19330
634.54709,0.19667
636.58743,0.19905
638.62778,0.19896
640.66812,0.19919
642.70847,0.20060
644.74881,0.20094
646.78916,0.20010
648.82950,0.20093
650.86984,0.20348
652.91019,0.20478
654.95053,0.20567
656.99088,0.20790
659.03122,0.21003
661.07157,0.21192
663.11191,0.21371
665.15226,0.21445
667.19260,0.21569
669.23294,0.21821
671.27329,0.22009
673.31363,0.22171
675.35398,0.22202
677.39432,0.21981
679.43467,0.21780
681.47501,0.21750
683.51535,0.21302
685.55570,0.20084
687.59604,0.18957
689.63639,0.18745
691.67673,0.19121
693.71708,0.19517
695.75742,0.19821
697.79776,0.20028
699.83811,0.20158
701.87845,0.20366
703.91880,0.20649
705.95914,0.20887
707.99949,0.21114
710.03983,0.21339
712.08017,0.21505
714.12052,0.21598
716.16086,0.21635
718.20121,0.21706
720.24155,0.21849
722.28190,0.21974
724.32224,0.22017
726.36259,0.22048
728.40293,0.22215
730.44327,0.22543
732.48362,0.22845
734.52396,0.22975
736.56431,0.23018
738.60465,0.23109
740.64500,0.23278
742.68534,0.23493
744.72568,0.23695
746.76603,0.23842
748.80637,0.23927
750.84672,0.23969
752.88706,0.23942
754.92741,0.23868
756.96775,0.23884
759.00809,0.24006
761.04844,0.24151
763.08878,0.24343
765.12913,0.24545
767.16947,0.24681
769.20982,0.24863
771.25016,0.25096
773.29051,0.25248
775.33085,0.25374
777.37119,0.25579
779.41154,0.25840
781.45188,0.26081
783.49223,0.26270
785.53257,0.26427
787.57292,0.26597
789.61326,0.26832
791.65360,0.27158
793.69395,0.27590
795.73429,0.28079
797.77464,0.28540
799.81498,0.28961
801.85533,0.29336
803.89567,0.29655
805.93601,0.29957
807.97636,0.30282
810.01670,0.30658
812.05705,0.31099
814.09739,0.31587
816.13774,0.32125
818.17808,0.32690
820.21842,0.33253
822.25877,0.33847
824.29911,0.34405
826.33946,0.34803
828.37980,0.35051
830.42015,0.35237
832.46049,0.35455
834.50084,0.35835
836.54118,0.36483
838.58152,0.37460
840.62187,0.38803
842.66221,0.40529
844.70256,0.42598
846.74290,0.44691
848.78325,0.46223
850.82359,0.46529
852.86393,0.45042
854.90428,0.41773
856.94462,0.37928
858.98497,0.35345
861.02531,0.34712
863.06566,0.35259
865.10600,0.35959
867.14634,0.36281
869.18669,0.36232
871.22703,0.35563
873.26738,0.33768
875.30772,0.31576
877.34807,0.30983
879.38841,0.33027
881.42876,0.36774
883.46910,0.40677
885.50944,0.43657
887.54979,0.45193
889.59013,0.45199
891.63048,0.43774
893.67082,0.41072
895.71117,0.37627
897.75151,0.34931
899.79185,0.34747
901.83220,0.36991
903.87254,0.39325
905.91289,0.39473
907.95323,0.37329
909.99358,0.34800
912.03392,0.33750
914.07426,0.34132
916.11461,0.35034
918.15495,0.36359
920.19530,0.37892
922.23564,0.39167
924.27599,0.40687
926.31633,0.42937
928.35667,0.45285
930.39702,0.46917
932.43736,0.47679
934.47771,0.47802
936.51805,0.47495
938.55840,0.46904
940.59874,0.46253
942.63909,0.45716
944.67943,0.45006
946.71977,0.43682
948.76012,0.42183
950.80046,0.41739
952.84081,0.42583
954.88115,0.43559
956.92150,0.43873
958.96184,0.43657
961.00218,0.43164
963.04253,0.42523
965.08287,0.41818
967.12322,0.41071
969.16356,0.40256
971.20391,0.39339
973.24425,0.38367
975.28459,0.37525
977.32494,0.36901
979.36528,0.36331
981.40563,0.35634
983.44597,0.34797
985.48632,0.33900
987.52666,0.32991
989.56701,0.32032
991.60735,0.31035
993.64769,0.30065
995.68804,0.29090
997.72838,0.28066
999.76873,0.27048
1001.80907,0.26078
1003.84942,0.25121
1005.88976,0.24144
1007.93010,0.23167
1009.97045,0.22206
1012.01079,0.21198
1014.05114,0.20093
1016.09148,0.19029
1018.13183,0.18336
1020.17217,0.18105
1022.21251,0.17917
1024.25286,0.17622
1026.29320,0.17711
1028.33355,0.18332
1030.37389,0.18945
1032.41424,0.19281
1034.45458,0.19451
1036.49493,0.19390
1038.53527,0.19057
1040.57561,0.18574
1042.61596,0.18012
1044.65630,0.17420
1046.69665,0.16849
1048.73699,0.16296
1050.77734,0.15744
1052.81768,0.15200
1054.85802,0.14662
1056.89837,0.14124
1058.93871,0.13589
1060.97906,0.13047
1063.01940,0.12509
1065.05975,0.11987
1067.10009,0.11431
1069.14043,0.10821
1071.18078,0.10224
1073.22112,0.09653
1075.26147,0.09066
1077.30181,0.08468
1079.34216,0.07856
1081.38250,0.07196
1083.42284,0.06520
1085.46319,0.05873
1087.50353,0.05217
1089.54388,0.04548
1091.58422,0.03900
1093.62457,0.03284
1095.66491,0.02727
1097.70526,0.02255
1099.74560,0.01846
1101.78594,0.01497
1103.82629,0.01231
1105.86663,0.01035
1107.90698,0.00872
1109.94732,0.00751
1111.98767,0.00692
1114.02801,0.00653
1116.06835,0.00600
1118.10870,0.00560
1120.14904,0.00578
1122.18939,0.00629
1124.22973,0.00678
1126.27008,0.00740
1128.31042,0.00782
1130.35076,0.00813
1132.39111,0.00899
1134.43145,0.01036
1136.47180,0.01159
1138.51214,0.01247
1140.55249,0.01362
1142.59283,0.01523
1144.63318,0.01675
1146.67352,0.01815
1148.71386,0.01980
1150.75421,0.02141
1152.79455,0.02271
1154.83490,0.02390
1156.87524,0.02522
1158.91559,0.02660
1160.95593,0.02788
1162.99627,0.02927
1165.03662,0.03084
1167.07696,0.03241
1169.11731,0.03393
1171.15765,0.03539
1173.19800,0.03694
1175.23834,0.03869
1177.27868,0.04002
1179.31903,0.04032
1181.35937,0.03987
1183.39972,0.03887
1185.44006,0.03759
1187.48041,0.03682
1189.52075,0.03709
1191.56109,0.03817
1193.60144,0.03966
1195.64178,0.04147
1197.68213,0.04343
1199.72247,0.04544
1201.76282,0.04758
1203.80316,0.04948
1205.84351,0.05096
1207.88385,0.05222
1209.92419,0.05341
1211.96454,0.05455
1214.00488,0.05583
1216.04523,0.05733
1218.08557,0.05860
1220.12592,0.05944
1222.16626,0.05998
1224.20660,0.06033
1226.24695,0.06092
1228.28729,0.06180
1230.32764,0.06238
1232.36798,0.06242
1234.40833,0.06229
1236.44867,0.06226
1238.48901,0.06215
1240.52936,0.06157
1242.56970,0.06042
1244.61005,0.05888
1246.65039,0.05687
1248.69074,0.05438
1250.73108,0.05161
1252.77143,0.04879
1254.81177,0.04636
1256.85211,0.04481
1258.89246,0.04441
1260.93280,0.04491
1262.97315,0.04581
1265.01349,0.04706
1267.05384,0.04858
1269.09418,0.04993
1271.13452,0.05105
1273.17487,0.05226
1275.21521,0.05350
1277.25556,0.05442
1279.29590,0.05513
1281.33625,0.05593
1283.37659,0.05685
1285.41693,0.05776
1287.45728,0.05829
1289.49762,0.05844
1291.53797,0.05857
1293.57831,0.05879
1295.61866,0.05896
1297.65900,0.05887
1299.69934,0.05850
1301.73969,0.05801
1303.78003,0.05776
1305.82038,0.05795
1307.86072,0.05837
1309.90107,0.05884
1311.94141,0.05936
1313.98176,0.05998
1316.02210,0.06064
1318.06244,0.06129
1320.10279,0.06186
1322.14313,0.06234
1324.18348,0.06274
1326.22382,0.06296
1328.26417,0.06325
1330.30451,0.06393
1332.34485,0.06476
1334.38520,0.06544
1336.42554,0.06593
1338.46589,0.06615
1340.50623,0.06622
1342.54658,0.06662
1344.58692,0.06733
1346.62726,0.06761
1348.66761,0.06737
1350.70795,0.06742
1352.74830,0.06782
1354.78864,0.06824
1356.82899,0.06872
1358.86933,0.06913
1360.90968,0.06911
1362.95002,0.06881
1364.99036,0.06866
1367.03071,0.06871
1369.07105,0.06906
1371.11140,0.06970
1373.15174,0.07019
1375.19209,0.07040
1377.23243,0.07057
1379.27277,0.07086
1381.31312,0.07119
1383.35346,0.07128
1385.39381,0.07119
1387.43415,0.07126
1389.47450,0.07162
1391.51484,0.07197
1393.55518,0.07215
1395.59553,0.07263
1397.63587,0.07344
1399.67622,0.07414
1401.71656,0.07490
1403.75691,0.07563
1405.79725,0.07595
1407.83760,0.07597
1409.87794,0.07613
1411.91828,0.07646
1413.95863,0.07651
1415.99897,0.07630
1418.03932,0.07628
1420.07966,0.07646
1422.12001,0.07668
1424.16035,0.07713
1426.20069,0.07774
1428.24104,0.07803
1430.28138,0.07812
1432.32173,0.07847
1434.36207,0.07890
1436.40242,0.07927
1438.44276,0.07984
1440.48310,0.08053
1442.52345,0.08108
1444.56379,0.08147
1446.60414,0.08174
1448.64448,0.08189
1450.68483,0.08198
1452.72517,0.08191
1454.76551,0.08131
1456.80586,0.08007
1458.84620,0.07916
1460.88655,0.07890
1462.92689,0.07870
1464.96724,0.07847
1467.00758,0.07837
1469.04793,0.07820
1471.08827,0.07786
1473.12861,0.07767
1475.16896,0.07805
1477.20930,0.07881
1479.24965,0.07966
1481.28999,0.08057
1483.33034,0.08140
1485.37068,0.08216
1487.41102,0.08293
1489.45137,0.08372
1491.49171,0.08434
1493.53206,0.08487
1495.57240,0.08583
1497.61275,0.08737
1499.65309,0.08917
1501.69343,0.09105
1503.73378,0.09227
1505.77412,0.09182
1507.81447,0.08839
1509.85481,0.08259
1511.89516,0.07569
1513.93550,0.06959
1515.97585,0.06622
1518.01619,0.06571
1520.05653,0.06727
1522.09688,0.06974
1524.13722,0.07149
1526.17757,0.07264
1528.21791,0.07372
1530.25826,0.07460
1532.29860,0.07544
1534.33894,0.07634
1536.37929,0.07693
1538.41963,0.07729
1540.45998,0.07799
1542.50032,0.07896
1544.54067,0.07983
1546.58101,0.08035
1548.62135,0.08033
1550.66170,0.08034
1552.70204,0.08085
1554.74239,0.08145
1556.78273,0.08184
1558.82308,0.08222
1560.86342,0.08265
1562.90376,0.08294
1564.94411,0.08314
1566.98445,0.08348
1569.02480,0.08399
1571.06514,0.08433
1573.10549,0.08451
1575.14583,0.08489
1577.18618,0.08536
1579.22652,0.08548
1581.26686,0.08517
1583.30721,0.08446
1585.34755,0.08381
1587.38790,0.08384
1589.42824,0.08424
1591.46859,0.08440
1593.50893,0.08450
1595.54927,0.08464
1597.58962,0.08451
1599.62996,0.08434
1601.67031,0.08437
1603.71065,0.08417
1605.75100,0.08344
1607.79134,0.08230
1609.83168,0.08097
1611.87203,0.07987
1613.91237,0.07920
1615.95272,0.07879
1617.99306,0.07869
1620.03341,0.07896
1622.07375,0.07941
1624.11410,0.07994
1626.15444,0.08050
1628.19478,0.08107
1630.23513,0.08150
1632.27547,0.08165
1634.31582,0.08169
1636.35616,0.08180
1638.39651,0.08188
1640.43685,0.08191
1642.47719,0.08186
1644.51754,0.08163
1646.55788,0.08188
1648.59823,0.08293
1650.63857,0.08356
1652.67892,0.08320
1654.71926,0.08290
1656.75960,0.08322
1658.79995,0.08347
1660.84029,0.08367
1662.88064,0.08385
1664.92098,0.08379
1666.96133,0.08357
1669.00167,0.08340
1671.04201,0.08355
1673.08236,0.08389
1675.12270,0.08421
1677.16305,0.08442
1679.20339,0.08449
1681.24374,0.08446
1683.28408,0.08439
1685.32443,0.08458
1687.36477,0.08510
1689.40511,0.08579
1691.44546,0.08636
1693.48580,0.08657
1695.52615,0.08656
1697.56649,0.08639
1699.60684,0.08646
1701.64718,0.08707
1703.68752,0.08769
1705.72787,0.08807
1707.76821,0.08829
1709.80856,0.08846
1711.84890,0.08863
1713.88925,0.08882
1715.92959,0.08894
1717.96993,0.08891
1720.01028,0.08894
1722.05062,0.08909
1724.09097,0.08912
1726.13131,0.08897
1728.17166,0.08883
1730.21200,0.08880
1732.25235,0.08875
1734.29269,0.08866
1736.33303,0.08867
1738.37338,0.08867
1740.41372,0.08867
1742.45407,0.08870
1744.49441,0.08865
1746.53476,0.08863
1748.57510,0.08867
1750.61544,0.08876
1752.65579,0.08891
1754.69613,0.08906
1756.73648,0.08906
1758.77682,0.08908
1760.81717,0.08925
1762.85751,0.08927
1764.89785,0.08896
1766.93820,0.08868
1768.97854,0.08860
1771.01889,0.08858
1773.05923,0.08869
1775.09958,0.08888
1777.13992,0.08900
1779.18027,0.08920
1781.22061,0.08944
1783.26095,0.08957
1785.30130,0.08956
1787.34164,0.08952
1789.38199,0.08950
1791.42233,0.08936
1793.46268,0.08919
1795.50302,0.08924
1797.54336,0.08936
1799.58371,0.08950
1801.62405,0.08973
1803.66440,0.08974
1805.70474,0.08964
1807.74509,0.08987
1809.78543,0.09035
1811.82577,0.09069
1813.86612,0.09091
1815.90646,0.09115
1817.94681,0.09128
1819.98715,0.09127
1822.02750,0.09113
1824.06784,0.09101
1826.10818,0.09110
1828.14853,0.09121
1830.18887,0.09116
1832.22922,0.09120
1834.26956,0.09161
1836.30991,0.09198
1838.35025,0.09191
1840.39060,0.09167
1842.43094,0.09160
1844.47128,0.09170
1846.51163,0.09187
1848.55197,0.09201
1850.59232,0.09196
1852.63266,0.09178
1854.67301,0.09168
1856.71335,0.09191
1858.75369,0.09237
1860.79404,0.09253
1862.83438,0.09234
1864.87473,0.09223
1866.91507,0.09233
1868.95542,0.09245
1870.99576,0.09245
1873.03610,0.09245
1875.07645,0.09250
1877.11679,0.09251
1879.15714,0.09241
1881.19748,0.09231
1883.23783,0.09245
1885.27817,0.09253
1887.31852,0.09230
1889.35886,0.09204
1891.39920,0.09194
1893.43955,0.09190
1895.47989,0.09189
1897.52024,0.09199
1899.56058,0.09203
1901.60093,0.09185
1903.64127,0.09157
1905.68161,0.09134
1907.72196,0.09130
1909.76230,0.09162
1911.80265,0.09212
1913.84299,0.09226
1915.88334,0.09204
1917.92368,0.09197
1919.96402,0.09215
1922.00437,0.09235
1924.04471,0.09243
1926.08506,0.09222
1928.12540,0.09201
1930.16575,0.09204
1932.20609,0.09219
1934.24643,0.09244
1936.28678,0.09279
1938.32712,0.09305
1940.36747,0.09296
1942.40781,0.09274
1944.44816,0.09274
1946.48850,0.09289
1948.52885,0.09312
1950.56919,0.09345
1952.60953,0.09372
1954.64988,0.09376
1956.69022,0.09377
1958.73057,0.09394
1960.77091,0.09411
1962.81126,0.09424
1964.85160,0.09427
1966.89194,0.09421
1968.93229,0.09415
1970.97263,0.09409
1973.01298,0.09414
1975.05332,0.09428
1977.09367,0.09435
1979.13401,0.09449
1981.17435,0.09472
1983.21470,0.09487
1985.25504,0.09498
1987.29539,0.09509
1989.33573,0.09520
1991.37608,0.09524
1993.41642,0.09498
1995.45677,0.09461
1997.49711,0.09457
1999.53745,0.09480
2001.57780,0.09507
2003.61814,0.09517
2005.65849,0.09504
2007.69883,0.09485
2009.73918,0.09487
2011.77952,0.09495
2013.81986,0.09485
2015.86021,0.09464
2017.90055,0.09433
2019.94090,0.09408
2021.98124,0.09412
2024.02159,0.09420
2026.06193,0.09422
2028.10227,0.09411
2030.14262,0.09395
2032.18296,0.09418
2034.22331,0.09472
2036.26365,0.09510
2038.30400,0.09506
2040.34434,0.09468
2042.38468,0.09434
2044.42503,0.09434
2046.46537,0.09457
2048.50572,0.09482
2050.54606,0.09495
2052.58641,0.09478
2054.62675,0.09458
2056.66710,0.09462
2058.70744,0.09455
2060.74778,0.09440
2062.78813,0.09449
2064.82847,0.09476
2066.86882,0.09501
2068.90916,0.09508
2070.94951,0.09495
2072.98985,0.09484
2075.03019,0.09489
2077.07054,0.09505
2079.11088,0.09523
2081.15123,0.09536
2083.19157,0.09541
2085.23192,0.09540
2087.27226,0.09536
2089.31260,0.09527
2091.35295,0.09517
2093.39329,0.09514
2095.43364,0.09519
2097.47398,0.09529
2099.51433,0.09545
2101.55467,0.09576
2103.59502,0.09623
2105.63536,0.09655
2107.67570,0.09648
2109.71605,0.09624
2111.75639,0.09609
2113.79674,0.09607
2115.83708,0.09603
2117.87743,0.09585
2119.91777,0.09557
2121.95811,0.09529
2123.99846,0.09516
2126.03880,0.09534
2128.07915,0.09557
2130.11949,0.09558
2132.15984,0.09581
2134.20018,0.09622
2136.24052,0.09630
2138.28087,0.09617
2140.32121,0.09613
2142.36156,0.09610
2144.40190,0.09606
2146.44225,0.09611
2148.48259,0.09629
2150.52294,0.09666
2152.56328,0.09704
2154.60362,0.09715
2156.64397,0.09706
2158.68431,0.09700
2160.72466,0.09716
2162.76500,0.09749
2164.80535,0.09759
2166.84569,0.09749
2168.88603,0.09751
2170.92638,0.09769
2172.96672,0.09778
2175.00707,0.09775
2177.04741,0.09791
2179.08776,0.09820
2181.12810,0.09837
2183.16844,0.09857
2185.20879,0.09878
2187.24913,0.09867
2189.28948,0.09836
2191.32982,0.09811
2193.37017,0.09810
2195.41051,0.09840
2197.45085,0.09873
2199.49120,0.09866
2201.53154,0.09822
2203.57189,0.09795
2205.61223,0.09794
2207.65258,0.09802
2209.69292,0.09836
2211.73327,0.09866
2213.77361,0.09850
2215.81395,0.09819
2217.85430,0.09809
2219.89464,0.09806
2221.93499,0.09794
2223.97533,0.09785
2226.01568,0.09786
2228.05602,0.09767
2230.09636,0.09719
2232.13671,0.09685
2234.17705,0.09672
2236.21740,0.09666
2238.25774,0.09659
2240.29809,0.09642
2242.33843,0.09626
2244.37877,0.09635
2246.41912,0.09646
2248.45946,0.09612
2250.49981,0.09555
2252.54015,0.09539
2254.58050,0.09566
2256.62084,0.09596
2258.66119,0.09618
2260.70153,0.09625
2262.74187,0.09614
2264.78222,0.09610
2266.82256,0.09617
2268.86291,0.09609
2270.90325,0.09611
2272.94360,0.09648
2274.98394,0.09679
2277.02428,0.09678
2279.06463,0.09675
2281.10497,0.09688
2283.14532,0.09698
2285.18566,0.09700
2287.22601,0.09701
2289.26635,0.09683
2291.30669,0.09654
2293.34704,0.09648
2295.38738,0.09668
2297.42773,0.09700
2299.46807,0.09718
2301.50842,0.09703
2303.54876,0.09677
2305.58910,0.09669
2307.62945,0.09671
2309.66979,0.09667
2311.71014,0.09678
2313.75048,0.09702
2315.79083,0.09713
2317.83117,0.09718
2319.87152,0.09729
2321.91186,0.09735
2323.95220,0.09742
2325.99255,0.09751
2328.03289,0.09743
2330.07324,0.09715
2332.11358,0.09701
2334.15393,0.09734
2336.19427,0.09801
2338.23461,0.09879
2340.27496,0.09947
2342.31530,0.09953
2344.35565,0.09863
2346.39599,0.09771
2348.43634,0.09762
2350.47668,0.09798
2352.51702,0.09849
2354.55737,0.09892
2356.59771,0.09879
2358.63806,0.09876
2360.67840,0.09952
2362.71875,0.10042
2364.75909,0.10067
2366.79944,0.09973
2368.83978,0.09827
2370.88012,0.09762
2372.92047,0.09778
2374.96081,0.09809
2377.00116,0.09835
2379.04150,0.09855
2381.08185,0.09858
2383.12219,0.09844
2385.16253,0.09852
2387.20288,0.09874
2389.24322,0.09865
2391.28357,0.09839
2393.32391,0.09833
2395.36426,0.09837
2397.40460,0.09823
2399.44494,0.09793
2401.48529,0.09770
2403.52563,0.09763
2405.56598,0.09753
2407.60632,0.09732
2409.64667,0.09710
2411.68701,0.09700
2413.72735,0.09706
2415.76770,0.09690
2417.80804,0.09655
2419.84839,0.09644
2421.88873,0.09642
2423.92908,0.09642
2425.96942,0.09647
2428.00977,0.09638
2430.05011,0.09622
2432.09045,0.09619
2434.13080,0.09629
2436.17114,0.09658
2438.21149,0.09693
2440.25183,0.09702
2442.29218,0.09695
2444.33252,0.09693
2446.37286,0.09694
2448.41321,0.09704
2450.45355,0.09712
2452.49390,0.09690
2454.53424,0.09667
2456.57459,0.09669
2458.61493,0.09684
2460.65527,0.09695
2462.69562,0.09705
2464.73596,0.09710
2466.77631,0.09693
2468.81665,0.09676
2470.85700,0.09688
2472.89734,0.09701
2474.93769,0.09678
2476.97803,0.09657
2479.01837,0.09667
2481.05872,0.09665
2483.09906,0.09665
2485.13941,0.09713
2487.17975,0.09754
2489.22010,0.09745
2491.26044,0.09712
2493.30078,0.09694
2495.34113,0.09714
2497.38147,0.09746
2499.42182,0.09751
2501.46216,0.09738
2503.50251,0.09729
2505.54285,0.09721
2507.58319,0.09712
2509.62354,0.09705
2511.66388,0.09709
2513.70423,0.09724
2515.74457,0.09732
2517.78492,0.09719
2519.82526,0.09695
2521.86561,0.09689
2523.90595,0.09693
2525.94629,0.09691
2527.98664,0.09683
2530.02698,0.09679
2532.06733,0.09693
2534.10767,0.09708
2536.14802,0.09697
2538.18836,0.09663
2540.22870,0.09641
2542.26905,0.09654
2544.30939,0.09656
2546.34974,0.09635
2548.39008,0.09621
2550.43043,0.09609
2552.47077,0.09591
2554.51111,0.09564
2556.55146,0.09530
2558.59180,0.09520
2560.63215,0.09534
2562.67249,0.09546
2564.71284,0.09559
2566.75318,0.09578
2568.79352,0.09578
2570.83387,0.09545
2572.87421,0.09503
2574.91456,0.09491
2576.95490,0.09519
2578.99525,0.09544
2581.03559,0.09540
2583.07594,0.09563
2585.11628,0.09590
2587.15662,0.09547
2589.19697,0.09466
2591.23731,0.09425
2593.27766,0.09444
2595.31800,0.09488
2597.35835,0.09514
2599.39869,0.09503
2601.43903,0.09480
2603.47938,0.09483
2605.51972,0.09498
2607.56007,0.09483
2609.60041,0.09454
2611.64076,0.09454
2613.68110,0.09476
2615.72144,0.09503
2617.76179,0.09508
2619.80213,0.09491
2621.84248,0.09499
2623.88282,0.09519
2625.92317,0.09522
2627.96351,0.09523
2630.00386,0.09536
2632.04420,0.09549
2634.08454,0.09559
2636.12489,0.09589
2638.16523,0.09607
2640.20558,0.09581
2642.24592,0.09550
2644.28627,0.09523
2646.32661,0.09504
2648.36695,0.09516
2650.40730,0.09546
2652.44764,0.09551
2654.48799,0.09509
2656.52833,0.09477
2658.56868,0.09492
2660.60902,0.09520
2662.64936,0.09524
2664.68971,0.09517
2666.73005,0.09531
2668.77040,0.09544
2670.81074,0.09519
2672.85109,0.09479
2674.89143,0.09444
2676.93177,0.09413
2678.97212,0.09398
2681.01246,0.09408
2683.05281,0.09432
2685.09315,0.09459
2687.13350,0.09457
2689.17384,0.09423
2691.21419,0.09380
2693.25453,0.09356
2695.29487,0.09375
2697.33522,0.09410
2699.37556,0.09418
2701.41591,0.09421
2703.45625,0.09456
2705.49660,0.09502
2707.53694,0.09505
2709.57728,0.09474
2711.61763,0.09466
2713.65797,0.09471
2715.69832,0.09465
2717.73866,0.09474
2719.77901,0.09500
2721.81935,0.09510
2723.85969,0.09483
2725.90004,0.09450
2727.94038,0.09450
2729.98073,0.09467
2732.02107,0.09484
2734.06142,0.09519
2736.10176,0.09563
2738.14211,0.09574
2740.18245,0.09538
2742.22279,0.09476
2744.26314,0.09435
2746.30348,0.09436
2748.34383,0.09445
2750.38417,0.09428
2752.42452,0.09390
2754.46486,0.09388
2756.50520,0.09460
2758.54555,0.09533
2760.58589,0.09517
2762.62624,0.09456
2764.66658,0.09428
2766.70693,0.09441
2768.74727,0.09454
2770.78761,0.09430
2772.82796,0.09417
2774.86830,0.09440
2776.90865,0.09422
2778.94899,0.09354
2780.98934,0.09308
2783.02968,0.09303
2785.07002,0.09305
2787.11037,0.09309
2789.15071,0.09324
2791.19106,0.09337
2793.23140,0.09346
2795.27175,0.09365
2797.31209,0.09390
2799.35244,0.09398
2801.39278,0.09384
2803.43312,0.09362
2805.47347,0.09313
2807.51381,0.09242
2809.55416,0.09219
2811.59450,0.09252
2813.63485,0.09283
2815.67519,0.09310
2817.71553,0.09338
2819.75588,0.09350
2821.79622,0.09339
2823.83657,0.09308
2825.87691,0.09286
2827.91726,0.09285
2829.95760,0.09294
2831.99794,0.09315
2834.03829,0.09326
2836.07863,0.09325
2838.11898,0.09335
2840.15932,0.09335
2842.19967,0.09323
2844.24001,0.09346
2846.28036,0.09401
2848.32070,0.09440
2850.36104,0.09457
2852.40139,0.09469
2854.44173,0.09444
2856.48208,0.09389
2858.52242,0.09353
2860.56277,0.09336
2862.60311,0.09290
2864.64345,0.09210
2866.68380,0.09163
2868.72414,0.09186
2870.76449,0.09232
2872.80483,0.09240
2874.84518,0.09196
2876.88552,0.09136
2878.92586,0.09111
2880.96621,0.09131
2883.00655,0.09161
2885.04690,0.09163
2887.08724,0.09135
2889.12759,0.09126
2891.16793,0.09160
2893.20828,0.09193
2895.24862,0.09180
2897.28896,0.09139
2899.32931,0.09131
2901.36965,0.09146
2903.41000,0.09163
2905.45034,0.09198
2907.49069,0.09229
2909.53103,0.09246
2911.57137,0.09263
2913.61172,0.09255
2915.65206,0.09219
2917.69241,0.09193
2919.73275,0.09184
2921.77310,0.09180
2923.81344,0.09189
2925.85378,0.09194
2927.89413,0.09163
2929.93447,0.09109
2931.97482,0.09038
2934.01516,0.08965
2936.05551,0.08929
2938.09585,0.08910
2940.13619,0.08852
2942.17654,0.08767
2944.21688,0.08716
2946.25723,0.08717
2948.29757,0.08720
2950.33792,0.08710
2952.37826,0.08703
2954.41861,0.08700
2956.45895,0.08709
2958.49929,0.08716
2960.53964,0.08691
2962.57998,0.08660
2964.62033,0.08636
2966.66067,0.08596
2968.70102,0.08556
2970.74136,0.08532
2972.78170,0.08518
2974.82205,0.08519
2976.86239,0.08523
2978.90274,0.08535
2980.94308,0.08570
2982.98343,0.08604
2985.02377,0.08613
2987.06411,0.08605
2989.10446,0.08596
2991.14480,0.08604
2993.18515,0.08642
2995.22549,0.08691
2997.26584,0.08724
2999.30618,0.08743
3001.34653,0.08740
3003.38687,0.08720
3005.42721,0.08718
3007.46756,0.08745
3009.50790,0.08756
3011.54825,0.08732
3013.58859,0.08706
3015.62894,0.08705
3017.66928,0.08736
3019.70962,0.08757
3021.74997,0.08766
3023.79031,0.08789
3025.83066,0.08796
3027.87100,0.08777
3029.91135,0.08762
3031.95169,0.08771
3033.99203,0.08785
3036.03238,0.08761
3038.07272,0.08717
3040.11307,0.08722
3042.15341,0.08763
3044.19376,0.08766
3046.23410,0.08722
3048.27444,0.08700
3050.31479,0.08730
3052.35513,0.08752
3054.39548,0.08723
3056.43582,0.08674
3058.47617,0.08652
3060.51651,0.08674
3062.55686,0.08711
3064.59720,0.08737
3066.63754,0.08762
3068.67789,0.08782
3070.71823,0.08771
3072.75858,0.08736
3074.79892,0.08746
3076.83927,0.08797
3078.87961,0.08812
3080.91995,0.08810
3082.96030,0.08808
3085.00064,0.08782
3087.04099,0.08747
3089.08133,0.08746
3091.12168,0.08778
3093.16202,0.08798
3095.20236,0.08792
3097.24271,0.08760
3099.28305,0.08739
3101.32340,0.08772
3103.36374,0.08816
3105.40409,0.08814
3107.44443,0.08789
3109.48478,0.08787
3111.52512,0.08793
3113.56546,0.08779
3115.60581,0.08748
3117.64615,0.08718
3119.68650,0.08705
3121.72684,0.08710
3123.76719,0.08728
3125.80753,0.08755
3127.84787,0.08780
3129.88822,0.08793
3131.92856,0.08769
3133.96891,0.08721
3136.00925,0.08693
3138.04960,0.08685
3140.08994,0.08707
3142.13028,0.08775
3144.17063,0.08815
3146.21097,0.08801
3148.25132,0.08801
3150.29166,0.08821
3152.33201,0.08830
3154.37235,0.08809
3156.41269,0.08735
3158.45304,0.08664
3160.49338,0.08676
3162.53373,0.08748
3164.57407,0.08797
3166.61442,0.08810
3168.65476,0.08819
3170.69511,0.08810
3172.73545,0.08773
3174.77579,0.08727
3176.81614,0.08713
3178.85648,0.08751
3180.89683,0.08757
3182.93717,0.08689
3184.97752,0.08637
3187.01786,0.08651
3189.05820,0.08702
3191.09855,0.08749
3193.13889,0.08757
3195.17924,0.08726
3197.21958,0.08706
3199.25993,0.08722
3201.30027,0.08739
3203.34061,0.08761
3205.38096,0.08789
3207.42130,0.08760
3209.46165,0.08685
3211.50199,0.08642
3213.54234,0.08680
3215.58268,0.08747
3217.62303,0.08774
3219.66337,0.08777
3221.70371,0.08796
3223.74406,0.08804
3225.78440,0.08770
3227.82475,0.08740
3229.86509,0.08740
3231.90544,0.08730
3233.94578,0.08692
3235.98612,0.08676
3238.02647,0.08702
3240.06681,0.08719
3242.10716,0.08698
3244.14750,0.08664
3246.18785,0.08651
3248.22819,0.08664
3250.26853,0.08682
3252.30888,0.08682
3254.34922,0.08671
3256.38957,0.08656
3258.42991,0.08658
3260.47026,0.08680
3262.51060,0.08691
3264.55095,0.08704
3266.59129,0.08715
3268.63163,0.08701
3270.67198,0.08670
3272.71232,0.08637
3274.75267,0.08626
3276.79301,0.08652
3278.83336,0.08700
3280.87370,0.08735
3282.91404,0.08713
3284.95439,0.08648
3286.99473,0.08616
3289.03508,0.08628
3291.07542,0.08626
3293.11577,0.08593
3295.15611,0.08550
3297.19645,0.08526
3299.23680,0.08557
3301.27714,0.08599
3303.31749,0.08593
3305.35783,0.08564
3307.39818,0.08567
3309.43852,0.08599
3311.47886,0.08600
3313.51921,0.08566
3315.55955,0.08555
3317.59990,0.08567
3319.64024,0.08585
3321.68059,0.08593
3323.72093,0.08572
3325.76128,0.08582
3327.80162,0.08627
3329.84196,0.08620
3331.88231,0.08555
3333.92265,0.08501
3335.96300,0.08484
3338.00334,0.08488
3340.04369,0.08497
3342.08403,0.08521
3344.12437,0.08543
3346.16472,0.08530
3348.20506,0.08515
3350.24541,0.08538
3352.28575,0.08562
3354.32610,0.08560
3356.36644,0.08541
3358.40678,0.08538
3360.44713,0.08566
3362.48747,0.08574
3364.52782,0.08545
3366.56816,0.08512
3368.60851,0.08499
3370.64885,0.08517
3372.68920,0.08525
3374.72954,0.08474
3376.76988,0.08406
3378.81023,0.08390
3380.85057,0.08405
3382.89092,0.08412
3384.93126,0.08394
3386.97161,0.08361
3389.01195,0.08355
3391.05229,0.08385
3393.09264,0.08408
3395.13298,0.08413
3397.17333,0.08420
3399.21367,0.08447
3401.25402,0.08463
3403.29436,0.08438
3405.33470,0.08396
3407.37505,0.08361
3409.41539,0.08345
3411.45574,0.08343
3413.49608,0.08331
3415.53643,0.08307
3417.57677,0.08299
3419.61711,0.08309
3421.65746,0.08302
3423.69780,0.08269
3425.73815,0.08241
3427.77849,0.08249
3429.81884,0.08278
3431.85918,0.08305
3433.89953,0.08314
3435.93987,0.08304
3437.98021,0.08306
3440.02056,0.08333
3442.06090,0.08349
3444.10125,0.08321
3446.14159,0.08285
3448.18194,0.08291
3450.22228,0.08303
3452.26262,0.08283
3454.30297,0.08264
3456.34331,0.08266
3458.38366,0.08268
3460.42400,0.08276
3462.46435,0.08299
3464.50469,0.08312
3466.54503,0.08263
3468.58538,0.08183
3470.62572,0.08169
3472.66607,0.08196
3474.70641,0.08187
3476.74676,0.08170
3478.78710,0.08199
3480.82745,0.08254
3482.86779,0.08285
3484.90813,0.08274
3486.94848,0.08244
3488.98882,0.08218
3491.02917,0.08213
3493.06951,0.08219
3495.10986,0.08207
3497.15020,0.08179
3499.19054,0.08150
3501.23089,0.08142
3503.27123,0.08182
3505.31158,0.08234
3507.35192,0.08254
3509.39227,0.08246
3511.43261,0.08265
3513.47295,0.08315
3515.51330,0.08312
3517.55364,0.08257
3519.59399,0.08242
3521.63433,0.08265
3523.67468,0.08261
3525.71502,0.08226
3527.75536,0.08216
3529.79571,0.08268
3531.83605,0.08313
3533.87640,0.08297
3535.91674,0.08269
3537.95709,0.08262
3539.99743,0.08264
3542.03778,0.08288
3544.07812,0.08307
3546.11846,0.08292
3548.15881,0.08276
3550.19915,0.08249
3552.23950,0.08211
3554.27984,0.08190
3556.32019,0.08184
3558.36053,0.08193
3560.40087,0.08207
3562.44122,0.08210
3564.48156,0.08214
3566.52191,0.08266
3568.56225,0.08337
3570.60260,0.08352
3572.64294,0.08341
3574.68328,0.08338
3576.72363,0.08328
3578.76397,0.08308
3580.80432,0.08289
3582.84466,0.08277
3584.88501,0.08286
3586.92535,0.08306
3588.96570,0.08321
3591.00604,0.08322
3593.04638,0.08316
3595.08673,0.08319
3597.12707,0.08323
3599.16742,0.08345
3601.20776,0.08393
3603.24811,0.08442
3605.28845,0.08477
3607.32879,0.08487
3609.36914,0.08471
3611.40948,0.08458
3613.44983,0.08475
3615.49017,0.08486
3617.53052,0.08474
3619.57086,0.08485
3621.61120,0.08535
3623.65155,0.08545
3625.69189,0.08474
3627.73224,0.08412
3629.77258,0.08470
3631.81293,0.08539
3633.85327,0.08515
3635.89362,0.08469
3637.93396,0.08452
3639.97430,0.08454
3642.01465,0.08471
3644.05499,0.08477
3646.09534,0.08483
3648.13568,0.08515
3650.17603,0.08546
3652.21637,0.08561
3654.25671,0.08541
3656.29706,0.08518
3658.33740,0.08588
3660.37775,0.08682
3662.41809,0.08660
3664.45844,0.08555
3666.49878,0.08481
3668.53912,0.08450
3670.57947,0.08467
3672.61981,0.08533
3674.66016,0.08603
3676.70050,0.08623
3678.74085,0.08572
3680.78119,0.08517
3682.82153,0.08509
3684.86188,0.08547
3686.90222,0.08622
3688.94257,0.08682
3690.98291,0.08655
3693.02326,0.08575
3695.06360,0.08549
3697.10395,0.08577
3699.14429,0.08572
3701.18463,0.08519
3703.22498,0.08483
3705.26532,0.08512
3707.30567,0.08569
3709.34601,0.08595
3711.38636,0.08609
3713.42670,0.08651
3715.46704,0.08674
3717.50739,0.08660
3719.54773,0.08627
3721.58808,0.08588
3723.62842,0.08581
3725.66877,0.08645
3727.70911,0.08716
3729.74945,0.08713
3731.78980,0.08634
3733.83014,0.08563
3735.87049,0.08559
3737.91083,0.08572
3739.95118,0.08596
3741.99152,0.08597
3744.03187,0.08573
3746.07221,0.08600
3748.11255,0.08627
3750.15290,0.08639
3752.19324,0.08668
3754.23359,0.08678
3756.27393,0.08640
3758.31428,0.08577
3760.35462,0.08546
3762.39496,0.08554
3764.43531,0.08563
3766.47565,0.08577
3768.51600,0.08674
3770.55634,0.08787
3772.59669,0.08777
3774.63703,0.08693
3776.67737,0.08654
3778.71772,0.08671
3780.75806,0.08673
3782.79841,0.08677
3784.83875,0.08687
3786.87910,0.08656
3788.91944,0.08637
3790.95978,0.08665
3793.00013,0.08703
3795.04047,0.08723
3797.08082,0.08706
3799.12116,0.08682
3801.16151,0.08686
3803.20185,0.08658
3805.24220,0.08623
3807.28254,0.08619
3809.32288,0.08590
3811.36323,0.08558
3813.40357,0.08577
3815.44392,0.08631
3817.48426,0.08623
3819.52461,0.08556
3821.56495,0.08512
3823.60529,0.08508
3825.64564,0.08547
3827.68598,0.08632
3829.72633,0.08693
3831.76667,0.08687
3833.80702,0.08626
3835.84736,0.08543
3837.88770,0.08520
3839.92805,0.08597
3841.96839,0.08654
3844.00874,0.08607
3846.04908,0.08510
3848.08943,0.08478
3850.12977,0.08541
3852.17012,0.08655
3854.21046,0.08731
3856.25080,0.08689
3858.29115,0.08607
3860.33149,0.08581
3862.37184,0.08591
3864.41218,0.08546
3866.45253,0.08455
3868.49287,0.08423
3870.53321,0.08508
3872.57356,0.08591
3874.61390,0.08601
3876.65425,0.08575
3878.69459,0.08533
3880.73494,0.08526
3882.77528,0.08565
3884.81562,0.08583
3886.85597,0.08541
3888.89631,0.08495
3890.93666,0.08497
3892.97700,0.08510
3895.01735,0.08522
3897.05769,0.08555
3899.09803,0.08564
3901.13838,0.08519
3903.17872,0.08486
3905.21907,0.08516
3907.25941,0.08558
3909.29976,0.08558
3911.34010,0.08566
3913.38045,0.08601
3915.42079,0.08586
3917.46113,0.08542
3919.50148,0.08557
3921.54182,0.08597
3923.58217,0.08592
3925.62251,0.08526
3927.66286,0.08444
3929.70320,0.08408
3931.74354,0.08410
3933.78389,0.08425
3935.82423,0.08489
3937.86458,0.08581
3939.90492,0.08621
3941.94527,0.08582
3943.98561,0.08528
3946.02595,0.08551
3948.06630,0.08599
3950.10664,0.08586
3952.14699,0.08540
3954.18733,0.08486
3956.22768,0.08455
3958.26802,0.08444
3960.30837,0.08444
3962.34871,0.08509
3964.38905,0.08572
3966.42940,0.08564
3968.46974,0.08550
3970.51009,0.08544
3972.55043,0.08510
3974.59078,0.08495
3976.63112,0.08498
3978.67146,0.08460
3980.71181,0.08438
3982.75215,0.08445
3984.79250,0.08420
3986.83284,0.08425
3988.87319,0.08449
3990.91353,0.08412
3992.95387,0.08362
3994.99422,0.08363
3997.03456,0.08387
3999.07491,0.08387
4001.11525,0.08395
4003.15560,0.08443
4005.19594,0.08480
4007.23629,0.08465
4009.27663,0.08441
4011.31697,0.08442
4013.35732,0.08432
4015.39766,0.08397
4017.43801,0.08379
4019.47835,0.08419
4021.51870,0.08477
4023.55904,0.08498
4025.59938,0.08503
4027.63973,0.08480
4029.68007,0.08415
4031.72042,0.08368
4033.76076,0.08367
4035.80111,0.08413
4037.84145,0.08455
4039.88179,0.08422
4041.92214,0.08374
4043.96248,0.08363
4046.00283,0.08372
4048.04317,0.08373
4050.08352,0.08349
4052.12386,0.08334
4054.16420,0.08337
4056.20455,0.08342
4058.24489,0.08358
4060.28524,0.08369
4062.32558,0.08368
4064.36593,0.08351
4066.40627,0.08323
4068.44662,0.08310
4070.48696,0.08283
4072.52730,0.08280
4074.56765,0.08327
4076.60799,0.08352
4078.64834,0.08362
4080.68868,0.08359
4082.72903,0.08332
4084.76937,0.08354
4086.80971,0.08408
4088.85006,0.08425
4090.89040,0.08385
4092.93075,0.08298
4094.97109,0.08232
4097.01144,0.08251
4099.05178,0.08330
4101.09212,0.08390
4103.13247,0.08383
4105.17281,0.08345
4107.21316,0.08329
4109.25350,0.08343
4111.29385,0.08368
4113.33419,0.08344
4115.37454,0.08302
4117.41488,0.08349
4119.45522,0.08424
4121.49557,0.08444
4123.53591,0.08431
4125.57626,0.08380
4127.61660,0.08295
4129.65695,0.08228
4131.69729,0.08211
4133.73763,0.08240
4135.77798,0.08290
4137.81832,0.08320
4139.85867,0.08299
4141.89901,0.08269
4143.93936,0.08291
4145.97970,0.08314
4148.02004,0.08286
4150.06039,0.08279
4152.10073,0.08347
4154.14108,0.08397
4156.18142,0.08334
4158.22177,0.08257
4160.26211,0.08273
4162.30245,0.08336
4164.34280,0.08352
4166.38314,0.08287
4168.42349,0.08203
4170.46383,0.08186
4172.50418,0.08226
4174.54452,0.08262
4176.58487,0.08280
4178.62521,0.08296
4180.66555,0.08303
4182.70590,0.08278
4184.74624,0.08261
4186.78659,0.08293
4188.82693,0.08336
4190.86728,0.08324
4192.90762,0.08270
4194.94796,0.08238
4196.98831,0.08190
4199.02865,0.08139
4201.06900,0.08167
4203.10934,0.08256
4205.14969,0.08310
4207.19003,0.08276
4209.23037,0.08224
4211.27072,0.08230
4213.31106,0.08269
4215.35141,0.08289
4217.39175,0.08262
4219.43210,0.08198
4221.47244,0.08162
4223.51279,0.08207
4225.55313,0.08260
4227.59347,0.08280
4229.63382,0.08329
4231.67416,0.08330
4233.71451,0.08251
4235.75485,0.08234
4237.79520,0.08272
4239.83554,0.08275
4241.87588,0.08233
4243.91623,0.08200
4245.95657,0.08233
4247.99692,0.08295
4250.03726,0.08315
4252.07761,0.08320
4254.11795,0.08394
4256.15829,0.08474
4258.19864,0.08416
4260.23898,0.08290
4262.27933,0.08213
4264.31967,0.08145
4266.36002,0.08090
4268.40036,0.08118
4270.44070,0.08199
4272.48105,0.08277
4274.52139,0.08368
4276.56174,0.08435
4278.60208,0.08441
4280.64243,0.08449
4282.68277,0.08475
4284.72312,0.08469
4286.76346,0.08400
4288.80380,0.08322
4290.84415,0.08315
4292.88449,0.08346
4294.92484,0.08321
4296.96518,0.08284
4299.00553,0.08300
4301.04587,0.08314
4303.08621,0.08319
4305.12656,0.08332
4307.16690,0.08317
4309.20725,0.08294
4311.24759,0.08311
4313.28794,0.08328
4315.32828,0.08273
4317.36862,0.08212
4319.40897,0.08224
4321.44931,0.08249
4323.48966,0.08255
4325.53000,0.08258
4327.57035,0.08241
4329.61069,0.08202
4331.65104,0.08158
4333.69138,0.08127
4335.73172,0.08145
4337.77207,0.08216
4339.81241,0.08265
4341.85276,0.08272
4343.89310,0.08258
4345.93345,0.08232
4347.97379,0.08227
4350.01413,0.08219
4352.05448,0.08204
4354.09482,0.08223
4356.13517,0.08251
4358.17551,0.08278
4360.21586,0.08327
4362.25620,0.08340
4364.29654,0.08308
4366.33689,0.08359
4368.37723,0.08455
4370.41758,0.08415
4372.45792,0.08291
4374.49827,0.08255
4376.53861,0.08287
4378.57896,0.08315
4380.61930,0.08339
4382.65964,0.08313
4384.69999,0.08200
4386.74033,0.08103
4388.78068,0.08157
4390.82102,0.08321
4392.86137,0.08408
4394.90171,0.08352
4396.94205,0.08267
4398.98240,0.08268
4401.02274,0.08340
4403.06309,0.08359
4405.10343,0.08270
4407.14378,0.08181
4409.18412,0.08181
4411.22446,0.08244
4413.26481,0.08291
4415.30515,0.08251
4417.34550,0.08171
4419.38584,0.08181
4421.42619,0.08262
4423.46653,0.08288
4425.50687,0.08290
4427.54722,0.08333
4429.58756,0.08360
4431.62791,0.08321
4433.66825,0.08206
4435.70860,0.08132
4437.74894,0.08153
4439.78929,0.08181
4441.82963,0.08240
4443.86997,0.08305
4445.91032,0.08281
4447.95066,0.08221
4449.99101,0.08208
4452.03135,0.08222
4454.07170,0.08201
4456.11204,0.08184
4458.15238,0.08252
4460.19273,0.08342
4462.23307,0.08365
4464.27342,0.08347
4466.31376,0.08320
4468.35411,0.08277
4470.39445,0.08256
4472.43479,0.08300
4474.47514,0.08372
4476.51548,0.08422
4478.55583,0.08446
4480.59617,0.08446
4482.63652,0.08387
4484.67686,0.08311
4486.71721,0.08263
4488.75755,0.08207
4490.79789,0.08161
4492.83824,0.08136
4494.87858,0.08113
4496.91893,0.08136
4498.95927,0.08229
4500.99962,0.08308
4503.03996,0.08302
4505.08030,0.08252
4507.12065,0.08211
4509.16099,0.08234
4511.20134,0.08307
4513.24168,0.08320
4515.28203,0.08260
4517.32237,0.08191
4519.36271,0.08156
4521.40306,0.08186
4523.44340,0.08239
4525.48375,0.08270
4527.52409,0.08284
4529.56444,0.08246
4531.60478,0.08177
4533.64512,0.08148
4535.68547,0.08152
4537.72581,0.08163
4539.76616,0.08148
4541.80650,0.08095
4543.84685,0.08098
4545.88719,0.08161
4547.92754,0.08172
4549.96788,0.08146
4552.00822,0.08138
4554.04857,0.08122
4556.08891,0.08069
4558.12926,0.07995
4560.16960,0.07959
4562.20995,0.07962
4564.25029,0.07972
4566.29063,0.08034
4568.33098,0.08123
4570.37132,0.08162
4572.41167,0.08230
4574.45201,0.08292
4576.49236,0.08176
4578.53270,0.08026
4580.57304,0.08080
4582.61339,0.08230
4584.65373,0.08285
4586.69408,0.08210
4588.73442,0.08094
4590.77477,0.08048
4592.81511,0.08078
4594.85546,0.08153
4596.89580,0.08201
4598.93614,0.08177
4600.97649,0.08111
4603.01683,0.08009
4605.05718,0.07946
4607.09752,0.07983
4609.13787,0.08061
4611.17821,0.08087
4613.21855,0.08048
4615.25890,0.08058
4617.29924,0.08153
4619.33959,0.08217
4621.37993,0.08184
4623.42028,0.08119
4625.46062,0.08138
4627.50096,0.08271
4629.54131,0.08337
4631.58165,0.08222
4633.62200,0.08122
4635.66234,0.08110
4637.70269,0.08041
4639.74303,0.07923
4641.78337,0.07892
4643.82372,0.08020
4645.86406,0.08194
4647.90441,0.08229
4649.94475,0.08113
4651.98510,0.07993
4654.02544,0.07995
4656.06579,0.08024
4658.10613,0.07992
4660.14647,0.08062
4662.18682,0.08216
4664.22716,0.08211
4666.26751,0.08108
4668.30785,0.08098
4670.34820,0.08149
4672.38854,0.08211
4674.42888,0.08256
4676.46923,0.08263
4678.50957,0.08276
4680.54992,0.08222
4682.59026,0.08077
4684.63061,0.08009
4686.67095,0.08066
4688.71129,0.08198
4690.75164,0.08256
4692.79198,0.08123
4694.83233,0.08030
4696.87267,0.08133
4698.91302,0.08246
4700.95336,0.08270
4702.99371,0.08282
4705.03405,0.08265
4707.07439,0.08125
4709.11474,0.07999
4711.15508,0.08046
4713.19543,0.08114
4715.23577,0.08121
4717.27612,0.08149
4719.31646,0.08190
4721.35680,0.08206
4723.39715,0.08152
4725.43749,0.08058
4727.47784,0.08048
4729.51818,0.08133
4731.55853,0.08236
4733.59887,0.08252
4735.63921,0.08194
4737.67956,0.08121
4739.71990,0.08021
4741.76025,0.07934
4743.80059,0.07870
4745.84094,0.07864
4747.88128,0.07923
4749.92163,0.07939
4751.96197,0.07938
4754.00231,0.07990
4756.04266,0.08061
4758.08300,0.08119
4760.12335,0.08098
4762.16369,0.08002
4764.20404,0.07978
4766.24438,0.08113
4768.28472,0.08278
4770.32507,0.08289
4772.36541,0.08197
4774.40576,0.08169
4776.44610,0.08147
4778.48645,0.08007
4780.52679,0.07857
4782.56713,0.07751
4784.60748,0.07677
4786.64782,0.07736
4788.68817,0.07854
4790.72851,0.07915
4792.76886,0.07999
4794.80920,0.08136
4796.84954,0.08222
4798.88989,0.08193
4800.93023,0.08102
4802.97058,0.08052
4805.01092,0.08120
4807.05127,0.08278
4809.09161,0.08372
4811.13196,0.08261
4813.17230,0.08068
4815.21264,0.08049
4817.25299,0.08211
4819.29333,0.08315
4821.33368,0.08224
4823.37402,0.08076
4825.41437,0.07985
4827.45471,0.07905
4829.49505,0.07910
4831.53540,0.08052
4833.57574,0.08242
4835.61609,0.08413
4837.65643,0.08367
4839.69678,0.08104
4841.73712,0.07985
4843.77746,0.08082
4845.81781,0.08165
4847.85815,0.08184
4849.89850,0.08185
4851.93884,0.08171
4853.97919,0.08141
4856.01953,0.08141
4858.05988,0.08174
4860.10022,0.08165
4862.14056,0.08127
4864.18091,0.08104
4866.22125,0.08056
4868.26160,0.07943
4870.30194,0.07827
4872.34229,0.07876
4874.38263,0.07942
4876.42297,0.07852
4878.46332,0.07797
4880.50366,0.07850
4882.54401,0.07926
4884.58435,0.07948
4886.62470,0.07950
4888.66504,0.08026
4890.70538,0.08043
4892.74573,0.08005
4894.78607,0.08091
4896.82642,0.08118
4898.86676,0.07966
4900.90711,0.07888
4902.94745,0.07915
4904.98779,0.07930
4907.02814,0.07958
4909.06848,0.08061
4911.10883,0.08209
4913.14917,0.08212
4915.18952,0.08134
4917.22986,0.08241
4919.27021,0.08315
4921.31055,0.08193
4923.35089,0.08229
4925.39124,0.08398
4927.43158,0.08299
4929.47193,0.08013
4931.51227,0.07888
4933.55262,0.07853
4935.59296,0.07796
4937.63330,0.07933
4939.67365,0.08136
4941.71399,0.08088
4943.75434,0.08057
4945.79468,0.08216
4947.83503,0.08360
4949.87537,0.08417
4951.91571,0.08218
4953.95606,0.07809
4955.99640,0.07592
4958.03675,0.07691
4960.07709,0.07979
4962.11744,0.08300
4964.15778,0.08369
4966.19813,0.08152
4968.23847,0.08094
4970.27881,0.08370
4972.31916,0.08553
4974.35950,0.08355
4976.39985,0.08147
4978.44019,0.08160
4980.48054,0.08168
4982.52088,0.08120
4984.56122,0.08065
4986.60157,0.08009
4988.64191,0.07991
4990.68226,0.07912
4992.72260,0.07726
4994.76295,0.07689
4996.80329,0.07770
4998.84363,0.07823
5000.88398,0.08066
5002.92432,0.08430
5004.96467,0.08390
5007.00501,0.07938
5009.04536,0.07788
5011.08570,0.08097
5013.12604,0.08304
5015.16639,0.08117
5017.20673,0.07809
5019.24708,0.07753
5021.28742,0.07975
5023.32777,0.08274
5025.36811,0.08480
5027.40846,0.08457
5029.44880,0.08305
5031.48914,0.08131
5033.52949,0.07817
5035.56983,0.07582
5037.61018,0.07571
5039.65052,0.07538
5041.69087,0.07504
5043.73121,0.07739
5045.77155,0.08278
5047.81190,0.08665
5049.85224,0.08583
5051.89259,0.08285
5053.93293,0.07966
5055.97328,0.07709
5058.01362,0.07691
5060.05396,0.07885
5062.09431,0.08003
5064.13465,0.08014
5066.17500,0.08062
5068.21534,0.07981
5070.25569,0.07616
5072.29603,0.07393
5074.33638,0.07715
5076.37672,0.08159
5078.41706,0.08157
5080.45741,0.07964
5082.49775,0.08042
5084.53810,0.08212
5086.57844,0.08176
5088.61879,0.08047
5090.65913,0.07975
5092.69947,0.07871
5094.73982,0.07785
5096.78016,0.07920
5098.82051,0.08091
5100.86085,0.07995
5102.90120,0.07759
5104.94154,0.07794
5106.98188,0.08114
5109.02223,0.08342
5111.06257,0.08432
5113.10292,0.08496
5115.14326,0.08398
5117.18361,0.07945
5119.22395,0.07411
5121.26430,0.07355
5123.30464,0.07636
5125.34498,0.07689
5127.38533,0.07652
5129.42567,0.07993
5131.46602,0.08405
5133.50636,0.08448
5135.54671,0.08254
5137.58705,0.08082
5139.62739,0.08112
5141.66774,0.08265
5143.70808,0.08283
5145.74843,0.08129
5147.78877,0.08121
5149.82912,0.08293
5151.86946,0.08150
5153.90980,0.07825
5155.95015,0.07813
5157.99049,0.07805
5160.03084,0.07619
5162.07118,0.07568
5164.11153,0.07748
5166.15187,0.07979
5168.19221,0.08178
5170.23256,0.08310
5172.27290,0.08282
5174.31325,0.08066
5176.35359,0.07778
5178.39394,0.07595
5180.43428,0.07579
5182.47463,0.07810
5184.51497,0.07866
5186.55531,0.07311
5188.59566,0.06987
5190.63600,0.07291
5192.67635,0.07572
5194.71669,0.07760
5196.75704,0.08067
5198.79738,0.08164
5200.83772,0.08034
5202.87807,0.07964
5204.91841,0.08041
5206.95876,0.08188
5208.99910,0.08364
5211.03945,0.08358
5213.07979,0.08252
5215.12013,0.08264
5217.16048,0.08153
5219.20082,0.07756
5221.24117,0.07564
5223.28151,0.07837
5225.32186,0.07886
5227.36220,0.07631
5229.40255,0.07811
5231.44289,0.08221
5233.48323,0.08547
5235.52358,0.08842
5237.56392,0.08832
5239.60427,0.08596
5241.64461,0.08260
5243.68496,0.08051
5245.72530,0.08256
5247.76564,0.08433
5249.80599,0.08233
5251.84633,0.08084
5253.88668,0.08069
5255.92702,0.08063
5257.96737,0.08136
5260.00771,0.08156
5262.04805,0.08268
5264.08840,0.08638
5266.12874,0.08502
5268.16909,0.07728
5270.20943,0.07395
5272.24978,0.07713
5274.29012,0.08144
5276.33046,0.08449
5278.37081,0.08328
5280.41115,0.08076
5282.45150,0.08226
5284.49184,0.08402
5286.53219,0.08397
5288.57253,0.08345
5290.61288,0.08218
5292.65322,0.08412
5294.69356,0.08985
5296.73391,0.08965
5298.77425,0.08257
5300.81460,0.07841
5302.85494,0.08301
5304.89529,0.08831
5306.93563,0.08805
5308.97597,0.08482
5311.01632,0.08116
5313.05666,0.08192
5315.09701,0.08870
5317.13735,0.09113
5319.17770,0.08489
5321.21804,0.07780
5323.25838,0.07387
5325.29873,0.07565
5327.33907,0.08239
5329.37942,0.08531
5331.41976,0.08473
5333.46011,0.08648
5335.50045,0.08831
5337.54080,0.08553
5339.58114,0.07666
5341.62148,0.06847
5343.66183,0.07006
5345.70217,0.07630
5347.74252,0.07613
5349.78286,0.07341
5351.82321,0.07368
5353.86355,0.07509
5355.90389,0.07648
5357.94424,0.07621
5359.98458,0.07297
5362.02493,0.07442
5364.06527,0.08293
5366.10562,0.08940
5368.14596,0.08913
5370.18630,0.08499
5372.22665,0.08325
5374.26699,0.08367
5376.30734,0.08097
5378.34768,0.07966
5380.38803,0.08106
5382.42837,0.08072
5384.46871,0.08189
5386.50906,0.08527
5388.54940,0.08726
5390.58975,0.08663
5392.63009,0.08437
5394.67044,0.08221
5396.71078,0.08212
5398.75113,0.08376
5400.79147,0.08226
5402.83181,0.08111
5404.87216,0.08159
5406.91250,0.08070
5408.95285,0.08067
5410.99319,0.08225
5413.03354,0.08473
5415.07388,0.08781
5417.11422,0.08847
5419.15457,0.08572
5421.19491,0.08133
5423.23526,0.07461
5425.27560,0.06943
5427.31595,0.06968
5429.35629,0.06815
5431.39663,0.06135
5433.43698,0.06121
5435.47732,0.07162
5437.51767,0.07583
5439.55801,0.06931
5441.59836,0.06645
5443.63870,0.06846
5445.67905,0.06995
5447.71939,0.07266
5449.75973,0.07535
5451.80008,0.07806
5453.84042,0.08209
5455.88077,0.08467
5457.92111,0.08023
5459.96146,0.07110
5462.00180,0.06817
5464.04214,0.07284
5466.08249,0.07932
5468.12283,0.08160
5470.16318,0.07819
5472.20352,0.07633
5474.24387,0.07918
5476.28421,0.08035
5478.32455,0.07993
5480.36490,0.08245
5482.40524,0.08671
5484.44559,0.09163
5486.48593,0.09411
5488.52628,0.08949
5490.56662,0.08312
5492.60697,0.07989
5494.64731,0.07560
5496.68765,0.07242
5498.72800,0.07469
5500.76834,0.07729
5502.80869,0.07817
5504.84903,0.07797
5506.88938,0.07955
5508.92972,0.08474
5510.97006,0.08631
5513.01041,0.08291
5515.05075,0.08257
5517.09110,0.08131
5519.13144,0.07552
5521.17179,0.07606
5523.21213,0.08093
5525.25247,0.08058
5527.29282,0.07787
5529.33316,0.07897
5531.37351,0.07812
5533.41385,0.07036
5535.45420,0.06999
5537.49454,0.08347
5539.53488,0.08899
5541.57523,0.08176
5543.61557,0.07950
5545.65592,0.08722
5547.69626,0.09942
5549.73661,0.10658
5551.77695,0.09920
5553.81730,0.08329
5555.85764,0.07346
5557.89798,0.07586
5559.93833,0.08561
5561.97867,0.09241
5564.01902,0.08944
5566.05936,0.07851
5568.09971,0.07237
5570.14005,0.07263
5572.18039,0.07380
5574.22074,0.07425
5576.26108,0.06990
5578.30143,0.06625
5580.34177,0.07066
5582.38212,0.07852
5584.42246,0.08410
5586.46280,0.08486
5588.50315,0.07920
5590.54349,0.07290
5592.58384,0.07056
5594.62418,0.07050
5596.66453,0.07269
5598.70487,0.07427
5600.74522,0.07833
5602.78556,0.08749
5604.82590,0.08767
5606.86625,0.07917
5608.90659,0.07860
5610.94694,0.08099
5612.98728,0.07998
5615.02763,0.08086
5617.06797,0.08188
5619.10831,0.08287
5621.14866,0.08476
5623.18900,0.08801
5625.22935,0.09008
5627.26969,0.08413
5629.31004,0.07475
5631.35038,0.07282
5633.39072,0.08049
5635.43107,0.08720
5637.47141,0.08355
5639.51176,0.07708
5641.55210,0.07824
5643.59245,0.08174
5645.63279,0.08337
5647.67313,0.08333
5649.71348,0.07957
5651.75382,0.07692
5653.79417,0.08269
5655.83451,0.09378
5657.87486,0.09594
5659.91520,0.08501
5661.95555,0.07813
5663.99589,0.08236
5666.03623,0.08444
5668.07658,0.08340
5670.11692,0.08559
5672.15727,0.08647
5674.19761,0.08018
5676.23796,0.07214
5678.27830,0.07199
5680.31864,0.07943
5682.35899,0.08629
5684.39933,0.08317
5686.43968,0.07459
5688.48002,0.07209
5690.52037,0.07421
5692.56071,0.07450
5694.60105,0.07307
5696.64140,0.07439
5698.68174,0.07848
5700.72209,0.08421
5702.76243,0.08737
5704.80278,0.08402
5706.84312,0.08286
5708.88347,0.08867
5710.92381,0.09072
5712.96415,0.08565
5715.00450,0.08374
5717.04484,0.08517
5719.08519,0.08103
5721.12553,0.08053
5723.16588,0.08631
5725.20622,0.08976
5727.24656,0.09235
5729.28691,0.09589
5731.32725,0.09543
5733.36760,0.09031
5735.40794,0.08672
5737.44829,0.08523
5739.48863,0.08601
5741.52897,0.09102
5743.56932,0.09383
5745.60966,0.09074
5747.65001,0.08663
5749.69035,0.08465
5751.73070,0.08574
5753.77104,0.08851
5755.81138,0.08782
5757.85173,0.08558
5759.89207,0.08591
5761.93242,0.08385
5763.97276,0.07634
5766.01311,0.07293
5768.05345,0.08158
5770.09380,0.09231
5772.13414,0.09214
5774.17448,0.08659
5776.21483,0.08809
5778.25517,0.09247
5780.29552,0.08921
5782.33586,0.08167
5784.37621,0.07839
5786.41655,0.07991
5788.45689,0.08209
5790.49724,0.08251
5792.53758,0.08047
5794.57793,0.07597
5796.61827,0.07347
5798.65862,0.07515
5800.69896,0.07553
5802.73930,0.08057
5804.77965,0.09271
5806.81999,0.10155
5808.86034,0.09958
5810.90068,0.08965
5812.94103,0.08088
5814.98137,0.07925
5817.02172,0.08015
5819.06206,0.07600
5821.10240,0.07288
5823.14275,0.07722
5825.18309,0.08265
5827.22344,0.08317
5829.26378,0.08451
5831.30413,0.08634
5833.34447,0.08060
5835.38481,0.07190
5837.42516,0.06886
5839.46550,0.07041
5841.50585,0.06946
5843.54619,0.06915
5845.58654,0.07245
5847.62688,0.08108
5849.66722,0.08895
5851.70757,0.08657
5853.74791,0.08134
5855.78826,0.08107
5857.82860,0.08043
5859.86895,0.08240
5861.90929,0.08869
5863.94964,0.09202
5865.98998,0.08913
5868.03032,0.08733
5870.07067,0.09039
5872.11101,0.09587
5874.15136,0.09607
5876.19170,0.08813
5878.23205,0.08001
5880.27239,0.08096
5882.31273,0.08798
5884.35308,0.08989
5886.39342,0.08624
5888.43377,0.08479
5890.47411,0.08622
5892.51446,0.08720
5894.55480,0.08303
5896.59514,0.07701
5898.63549,0.07712
5900.67583,0.08386
5902.71618,0.08778
5904.75652,0.08445
5906.79687,0.07534
5908.83721,0.06862
5910.87755,0.07433
5912.91790,0.08933
5914.95824,0.09931
5916.99859,0.09909
5919.03893,0.09296
5921.07928,0.08521
5923.11962,0.07997
5925.15997,0.07697
5927.20031,0.07780
5929.24065,0.08692
5931.28100,0.09350
5933.32134,0.08549
5935.36169,0.07523
5937.40203,0.07051
5939.44238,0.06574
5941.48272,0.06329
5943.52306,0.07068
5945.56341,0.08623
5947.60375,0.09440
5949.64410,0.08840
5951.68444,0.07883
5953.72479,0.07591
5955.76513,0.08097
5957.80547,0.08718
5959.84582,0.08727
5961.88616,0.08018
5963.92651,0.07422
5965.96685,0.07811
5968.00720,0.08871
5970.04754,0.09348
5972.08789,0.08721
5974.12823,0.08039
5976.16857,0.08210
5978.20892,0.08989
5980.24926,0.09191
5982.28961,0.08467
5984.32995,0.08321
5986.37030,0.09034
5988.41064,0.09459
5990.45098,0.09248
5992.49133,0.08705
5994.53167,0.08661
5996.57202,0.08923
5998.61236,0.08336
6000.65271,0.07798
6002.69305,0.08426
6004.73339,0.09320
6006.77374,0.09075
6008.81408,0.08130
6010.85443,0.07872
6012.89477,0.08351
6014.93512,0.08723
6016.97546,0.08880
6019.01580,0.09460
6021.05615,0.10149
6023.09649,0.09925
6025.13684,0.08955
6027.17718,0.08332
6029.21753,0.08469
6031.25787,0.08534
6033.29822,0.07575
6035.33856,0.06913
6037.37890,0.07214
6039.41925,0.07049
6041.45959,0.06860
6043.49994,0.07739
6045.54028,0.08233
6047.58063,0.07387
6049.62097,0.06789
6051.66131,0.07287
6053.70166,0.07417
6055.74200,0.06723
6057.78235,0.06981
6059.82269,0.08807
6061.86304,0.10240
6063.90338,0.09500
6065.94372,0.07773
6067.98407,0.06995
6070.02441,0.07285
6072.06476,0.07813
6074.10510,0.08313
6076.14545,0.08575
6078.18579,0.08328
6080.22614,0.08420
6082.26648,0.09046
6084.30682,0.08741
6086.34717,0.07426
6088.38751,0.06250
6090.42786,0.05576
6092.46820,0.05475
6094.50855,0.05836
6096.54889,0.06409
6098.58923,0.07231
6100.62958,0.07895
6102.66992,0.08232
6104.71027,0.08352
6106.75061,0.08119
6108.79096,0.07118
6110.83130,0.05947
6112.87164,0.05722
6114.91199,0.06549
6116.95233,0.07867
6118.99268,0.08919
6121.03302,0.09123
6123.07337,0.08691
6125.11371,0.08192
6127.15405,0.07520
6129.19440,0.06711
6131.23474,0.07091
6133.27509,0.08462
6135.31543,0.08663
6137.35578,0.07831
6139.39612,0.07588
6141.43647,0.07500
6143.47681,0.07209
6145.51715,0.07344
6147.55750,0.07316
6149.59784,0.06951
6151.63819,0.07360
6153.67853,0.08356
6155.71888,0.08322
6157.75922,0.07745
6159.79956,0.08216
6161.83991,0.08783
6163.88025,0.08506
6165.92060,0.08306
6167.96094,0.08162
6170.00129,0.07486
6172.04163,0.07180
6174.08197,0.08056
6176.12232,0.08559
6178.16266,0.07571
6180.20301,0.06780
6182.24335,0.07227
6184.28370,0.07698
6186.32404,0.07624
6188.36439,0.07523
6190.40473,0.07840
6192.44507,0.08203
6194.48542,0.07702
6196.52576,0.07247
6198.56611,0.07291
6200.60645,0.07734
6202.64680,0.08760
6204.68714,0.09408
6206.72748,0.09006
6208.76783,0.08374
6210.80817,0.08479
6212.84852,0.08288
6214.88886,0.07551
6216.92921,0.07758
6218.96955,0.08616
6221.00989,0.09164
6223.05024,0.09289
6225.09058,0.09076
6227.13093,0.08267
6229.17127,0.07535
6231.21162,0.07800
6233.25196,0.08302
6235.29231,0.08192
6237.33265,0.07706
6239.37299,0.07397
6241.41334,0.08006
6243.45368,0.09209
6245.49403,0.09711
6247.53437,0.09634
6249.57472,0.09836
6251.61506,0.09894
6253.65540,0.09106
6255.69575,0.08084
6257.73609,0.07707
6259.77644,0.08251
6261.81678,0.09234
6263.85713,0.09408
6265.89747,0.08335
6267.93781,0.07082
6269.97816,0.06667
6272.01850,0.07075
6274.05885,0.07861
6276.09919,0.08638
6278.13954,0.09217
6280.17988,0.08873
6282.22022,0.07811
6284.26057,0.07472
6286.30091,0.07955
6288.34126,0.08185
6290.38160,0.08286
6292.42195,0.08168
6294.46229,0.08069
6296.50264,0.08860
6298.54298,0.09604
6300.58332,0.09383
6302.62367,0.09160
6304.66401,0.09792
6306.70436,0.09631
6308.74470,0.07911
6310.78505,0.06939
6312.82539,0.07583
6314.86573,0.08182
6316.90608,0.08623
6318.94642,0.09504
6320.98677,0.09820
6323.02711,0.09039
6325.06746,0.08204
6327.10780,0.08072
6329.14814,0.08620
6331.18849,0.09251
6333.22883,0.09486
6335.26918,0.09486
6337.30952,0.10119
6339.34987,0.10326
6341.39021,0.09460
6343.43056,0.09034
6345.47090,0.08876
6347.51124,0.07812
6349.55159,0.07188
6351.59193,0.07875
6353.63228,0.08783
6355.67262,0.09402
6357.71297,0.09340
6359.75331,0.08745
6361.79365,0.08510
6363.83400,0.08535
6365.87434,0.08776
6367.91469,0.08895
6369.95503,0.08443
6371.99538,0.07661
6374.03572,0.07252
6376.07606,0.06845
6378.11641,0.06975
6380.15675,0.08108
6382.19710,0.08744
6384.23744,0.08847
6386.27779,0.09450
6388.31813,0.09992
6390.35847,0.09990
6392.39882,0.09401
6394.43916,0.08674
6396.47951,0.08562
6398.51985,0.08455
6400.56020,0.08408
6402.60054,0.08789
6404.64089,0.08777
6406.68123,0.07641
6408.72157,0.06759
6410.76192,0.07755
6412.80226,0.09127
6414.84261,0.09480
6416.88295,0.09538
6418.92330,0.09570
6420.96364,0.09186
6423.00398,0.08792
6425.04433,0.08893
6427.08467,0.09469
6429.12502,0.10198
6431.16536,0.10225
6433.20571,0.09638
6435.24605,0.09678
6437.28639,0.09776
6439.32674,0.08811
6441.36708,0.08602
6443.40743,0.09567
6445.44777,0.09621
6447.48812,0.08761
6449.52846,0.08420
6451.56881,0.08671
6453.60915,0.08415
6455.64949,0.08153
6457.68984,0.08069
6459.73018,0.07796
6461.77053,0.08056
6463.81087,0.08884
6465.85122,0.08736
6467.89156,0.07983
6469.93190,0.08410
6471.97225,0.09053
6474.01259,0.08546
6476.05294,0.07588
6478.09328,0.07576
6480.13363,0.08084
6482.17397,0.08081
6484.21431,0.07540
6486.25466,0.07271
6488.29500,0.07642
6490.33535,0.08161
6492.37569,0.08869
6494.41604,0.09860
6496.45638,0.09560
6498.49672,0.08132
6500.53707,0.07560
6502.57741,0.08140
6504.61776,0.08421
6506.65810,0.08094
6508.69845,0.08285
6510.73879,0.09032
6512.77914,0.09758
6514.81948,0.09893
6516.85982,0.09699
6518.90017,0.09991
6520.94051,0.10301
6522.98086,0.09506
6525.02120,0.08447
6527.06155,0.08189
6529.10189,0.07790
6531.14223,0.07079
6533.18258,0.07230
6535.22292,0.07751
6537.26327,0.07881
6539.30361,0.08636
6541.34396,0.09315
6543.38430,0.09316
6545.42464,0.09643
6547.46499,0.09965
6549.50533,0.09676
6551.54568,0.09845
6553.58602,0.10008
6555.62637,0.09154
6557.66671,0.08646
6559.70706,0.08959
6561.74740,0.09651
6563.78774,0.10079
6565.82809,0.09262
6567.86843,0.08619
6569.90878,0.08963
6571.94912,0.08685
6573.98947,0.07972
6576.02981,0.07465
6578.07015,0.06724
6580.11050,0.06022
6582.15084,0.06185
6584.19119,0.07377
6586.23153,0.08522
6588.27188,0.08890
6590.31222,0.08702
6592.35256,0.08371
6594.39291,0.08138
6596.43325,0.08242
6598.47360,0.09277
6600.51394,0.10240
6602.55429,0.10027
6604.59463,0.09906
6606.63498,0.10445
6608.67532,0.10980
6610.71566,0.11743
6612.75601,0.11528
6614.79635,0.10542
6616.83670,0.09674
6618.87704,0.08873
6620.91739,0.08540
6622.95773,0.09152
6624.99807,0.10172
6627.03842,0.10259
6629.07876,0.09045
6631.11911,0.07987
6633.15945,0.07818
6635.19980,0.08070
6637.24014,0.07976
6639.28048,0.07881
6641.32083,0.07773
6643.36117,0.07807
6645.40152,0.08253
6647.44186,0.09682
6649.48221,0.10679
6651.52255,0.09634
6653.56289,0.07820
6655.60324,0.07440
6657.64358,0.08258
6659.68393,0.08908
6661.72427,0.09596
6663.76462,0.10626
6665.80496,0.11098
6667.84531,0.10826
6669.88565,0.11047
6671.92599,0.11171
6673.96634,0.09821
6676.00668,0.07899
6678.04703,0.06665
6680.08737,0.06321
6682.12772,0.06649
6684.16806,0.07438
6686.20840,0.08394
6688.24875,0.08829
6690.28909,0.08916
6692.32944,0.08701
6694.36978,0.08134
6696.41013,0.08270
6698.45047,0.08918
6700.49081,0.09041
6702.53116,0.08503
6704.57150,0.07899
6706.61185,0.07226
6708.65219,0.07526
6710.69254,0.08676
6712.73288,0.09696
6714.77323,0.10889
6716.81357,0.10437
6718.85391,0.08662
6720.89426,0.08107
6722.93460,0.07938
6724.97495,0.07528
6727.01529,0.08105
6729.05564,0.09258
6731.09598,0.09635
6733.13632,0.09256
6735.17667,0.09461
6737.21701,0.10219
6739.25736,0.10480
6741.29770,0.10311
6743.33805,0.09974
6745.37839,0.09382
6747.41873,0.08299
6749.45908,0.07032
6751.49942,0.06512
6753.53977,0.07293
6755.58011,0.08926
6757.62046,0.09631
6759.66080,0.09137
6761.70114,0.09030
6763.74149,0.09347
6765.78183,0.09347
6767.82218,0.09388
6769.86252,0.09864
6771.90287,0.10464
6773.94321,0.09556
6775.98356,0.07543
6778.02390,0.07176
6780.06424,0.08405
6782.10459,0.08465
6784.14493,0.07494
6786.18528,0.06914
6788.22562,0.06683
6790.26597,0.07438
6792.30631,0.08837
6794.34665,0.09163
6796.38700,0.08891
6798.42734,0.09089
6800.46769,0.09088
6802.50803,0.08354
6804.54838,0.07792
6806.58872,0.08369
6808.62906,0.09451
6810.66941,0.09410
6812.70975,0.08745
6814.75010,0.08078
6816.79044,0.07487
6818.83079,0.07795
6820.87113,0.08301
6822.91148,0.08129
6824.95182,0.07613
6826.99216,0.07593
6829.03251,0.08096
6831.07285,0.08986
6833.11320,0.09382
6835.15354,0.08763
6837.19389,0.08446
6839.23423,0.08871
6841.27457,0.09309
6843.31492,0.10560
6845.35526,0.12519
6847.39561,0.13005
6849.43595,0.11999
6851.47630,0.10996
6853.51664,0.09803
6855.55698,0.09130
6857.59733,0.09684
6859.63767,0.10146
6861.67802,0.09609
6863.71836,0.08775
6865.75871,0.08081
6867.79905,0.07253
6869.83939,0.07012
6871.87974,0.07484
6873.92008,0.08060
6875.96043,0.09161
6878.00077,0.10578
6880.04112,0.11050
6882.08146,0.10029
6884.12181,0.08761
6886.16215,0.08638
6888.20249,0.08982
6890.24284,0.08359
6892.28318,0.07059
6894.32353,0.06925
6896.36387,0.06824
6898.40422,0.06017
6900.44456,0.06056
6902.48490,0.06443
6904.52525,0.06215
6906.56559,0.06752
6908.60594,0.08932
6910.64628,0.10152
6912.68663,0.08127
6914.72697,0.05311
6916.76731,0.05513
6918.80766,0.07831
6920.84800,0.09094
6922.88835,0.08518
6924.92869,0.08292
6926.96904,0.08506
6929.00938,0.08366
6931.04973,0.08087
6933.09007,0.08585
6935.13041,0.08638
6937.17076,0.07392
6939.21110,0.05990
6941.25145,0.05079
6943.29179,0.05479
6945.33214,0.08748
6947.37248,0.11748
6949.41282,0.12528
6951.45317,0.12061
6953.49351,0.10253
6955.53386,0.08836
6957.57420,0.09393
6959.61455,0.10258
6961.65489,0.09630
6963.69523,0.08471
6965.73558,0.08767
6967.77592,0.09596
6969.81627,0.09853
6971.85661,0.10600
6973.89696,0.11825
6975.93730,0.11931
6977.97765,0.10828
6980.01799,0.09514
6982.05833,0.07773
6984.09868,0.06886
6986.13902,0.08190
6988.17937,0.10458
6990.21971,0.11642
6992.26006,0.12117
6994.30040,0.12864
6996.34074,0.13216
6998.38109,0.12339
7000.42143,0.10195
7002.46178,0.06674
7004.50212,0.04042
7006.54247,0.03288
7008.58281,0.04088
7010.62315,0.04911
7012.66350,0.05743
7014.70384,0.07153
7016.74419,0.09016
7018.78453,0.10784
7020.82488,0.10977
7022.86522,0.09050
7024.90556,0.07237
7026.94591,0.07028
7028.98625,0.07006
7031.02660,0.07878
7033.06694,0.10077
7035.10729,0.11347
7037.14763,0.11265
7039.18798,0.11926
7041.22832,0.12362
7043.26866,0.10452
7045.30901,0.08662
7047.34935,0.09012
7049.38970,0.09885
7051.43004,0.10414
7053.47039,0.10383
7055.51073,0.09540
7057.55107,0.07928
7059.59142,0.06642
7061.63176,0.06486
7063.67211,0.06373
7065.71245,0.07317
7067.75280,0.09302
7069.79314,0.11417
7071.83348,0.12419
7073.87383,0.11708
7075.91417,0.10608
7077.95452,0.10931
7079.99486,0.11983
7082.03521,0.12587
7084.07555,0.13292
7086.11590,0.13399
7088.15624,0.11738
7090.19658,0.09053
7092.23693,0.06631
7094.27727,0.05562
7096.31762,0.05424
7098.35796,0.04653
7100.39831,0.04319
7102.43865,0.05343
7104.47899,0.07011
7106.51934,0.09133
7108.55968,0.09801
7110.60003,0.08946
7112.64037,0.09060
7114.68072,0.09154
7116.72106,0.08592
7118.76140,0.08377
7120.80175,0.08132
7122.84209,0.07748
7124.88244,0.08493
7126.92278,0.10348
7128.96313,0.12108
7131.00347,0.11713
7133.04381,0.09741
7135.08416,0.08534
7137.12450,0.09916
7139.16485,0.11536
7141.20519,0.08866
7143.24554,0.05703
7145.28588,0.07217
7147.32623,0.10216
7149.36657,0.10555
7151.40691,0.09329
7153.44726,0.09603
7155.48760,0.11440
7157.52795,0.11753
7159.56829,0.09522
7161.60864,0.06689
7163.64898,0.05169
7165.68932,0.06228
7167.72967,0.08694
7169.77001,0.10272
7171.81036,0.10381
7173.85070,0.08723
7175.89105,0.06288
7177.93139,0.05476
7179.97173,0.05921
7182.01208,0.06000
7184.05242,0.07735
7186.09277,0.07991
7188.13311,0.07712
7190.17346,0.09302
7192.21380,0.09825
7194.25415,0.08610
7196.29449,0.08450
7198.33483,0.09578
7200.37518,0.10626
7202.41552,0.10970
7204.45587,0.09735
7206.49621,0.08331
7208.53656,0.07688
7210.57690,0.06719
7212.61724,0.07072
7214.65759,0.08718
7216.69793,0.10603
7218.73828,0.13487
7220.77862,0.14894
7222.81897,0.12590
7224.85931,0.08455
7226.89965,0.06609
7228.94000,0.08187
7230.98034,0.09073
7233.02069,0.08390
7235.06103,0.08131
7237.10138,0.08833
7239.14172,0.08722
7241.18206,0.06829
7243.22241,0.05492
7245.26275,0.07509
7247.30310,0.09846
7249.34344,0.10431
7251.38379,0.09646
7253.42413,0.09167
7255.46448,0.10920
7257.50482,0.12586
7259.54516,0.12757
7261.58551,0.08693
7263.62585,0.04945
7265.66620,0.04903
7267.70654,0.05945
7269.74689,0.07444
7271.78723,0.06650
7273.82757,0.04884
7275.86792,0.04909
7277.90826,0.05566
7279.94861,0.06309
7281.98895,0.08650
7284.02930,0.11305
7286.06964,0.13872
7288.10998,0.15199
7290.15033,0.15964
7292.19067,0.14693
7294.23102,0.15665
7296.27136,0.16264
7298.31171,0.14791
7300.35205,0.11582
7302.39240,0.09176
7304.43274,0.09382
7306.47308,0.08513
7308.51343,0.06922
7310.55377,0.08701
7312.59412,0.08176
7314.63446,0.04845
7316.67481,0.05992
7318.71515,0.09854
7320.75549,0.10006
7322.79584,0.08030
7324.83618,0.07733
7326.87653,0.11715
7328.91687,0.16962
7330.95722,0.18658
7332.99756,0.15975
7335.03790,0.12036
7337.07825,0.10766
7339.11859,0.13320
7341.15894,0.17765
7343.19928,0.19614
7345.23963,0.16988
7347.27997,0.11999
7349.32032,0.08814
7351.36066,0.09482
7353.40100,0.10806
7355.44135,0.09844
7357.48169,0.10910
7359.52204,0.12921
7361.56238,0.17047
7363.60273,0.19133
7365.64307,0.15980
7367.68341,0.11631
7369.72376,0.10660
7371.76410,0.12810
7373.80445,0.14027
7375.84479,0.13022
7377.88514,0.11311
7379.92548,0.10157
7381.96582,0.10623
7384.00617,0.10989
7386.04651,0.09314
7388.08686,0.07572
7390.12720,0.08564
7392.16755,0.13232
7394.20789,0.19861
7396.24823,0.20172
7398.28858,0.13580
7400.32892,0.11140
7402.36927,0.10524
7404.40961,0.06368
7406.44996,0.06325
7408.49030,0.11098
7410.53065,0.13029
7412.57099,0.13781
7414.61133,0.16821
7416.65168,0.14011
7418.69202,0.10034
7420.73237,0.09792
7422.77271,0.09583
7424.81306,0.08612
7426.85340,0.12108
7428.89374,0.13787
7430.93409,0.10013
7432.97443,0.09870
7435.01478,0.11005
7437.05512,0.10000
7439.09547,0.10703
7441.13581,0.15160
7443.17615,0.17157
7445.21650,0.13903
7447.25684,0.10327
7449.29719,0.08746
7451.33753,0.09216
7453.37788,0.11151
7455.41822,0.11806
7457.45857,0.10877
7459.49891,0.13263
7461.53925,0.17562
7463.57960,0.19375
7465.61994,0.18696
7467.66029,0.16316
7469.70063,0.11862
7471.74098,0.10197
7473.78132,0.10110
7475.82166,0.07945
7477.86201,0.05681
7479.90235,0.07409
7481.94270,0.11996
7483.98304,0.14160
7486.02339,0.12898
7488.06373,0.12410
7490.10407,0.12134
7492.14442,0.08598
7494.18476,0.06850
7496.22511,0.10101
7498.26545,0.11557
7500.30580,0.10815
7502.34614,0.13652
7504.38648,0.15094
7506.42683,0.13721
7508.46717,0.13032
7510.50752,0.11647
7512.54786,0.11170
7514.58821,0.09631
7516.62855,0.07619
7518.66890,0.07380
7520.70924,0.11173
7522.74958,0.15145
7524.78993,0.17881
7526.83027,0.21032
7528.87062,0.23645
7530.91096,0.19933
7532.95131,0.12765
7534.99165,0.12424
7537.03199,0.18578
7539.07234,0.20737
7541.11268,0.15045
7543.15303,0.09320
7545.19337,0.10775
7547.23372,0.12564
7549.27406,0.10531
7551.31440,0.07671
7553.35475,0.09212
7555.39509,0.11387
7557.43544,0.10501
7559.47578,0.08123
7561.51613,0.08733
7563.55647,0.06215
7565.59682,0.01693
7567.63716,0.04321
7569.67750,0.08508
7571.71785,0.10494
7573.75819,0.09354
7575.79854,0.10429
7577.83888,0.11458
7579.87923,0.12034
7581.91957,0.10506
7583.95991,0.06228
7586.00026,0.04171
7588.04060,0.03280
7590.08095,0.02331
7592.12129,0.06733
7594.16164,0.11656
7596.20198,0.13764
7598.24232,0.14131
7600.28267,0.18599
7602.32301,0.22029
7604.36336,0.18870
7606.40370,0.12978
7608.44405,0.13484
7610.48439,0.18539
7612.52473,0.18080
7614.56508,0.15011
7616.60542,0.20318
7618.64577,0.22403
7620.68611,0.14383
7622.72646,0.09097
7624.76680,0.04182
7626.80715,0.07495
7628.84749,0.09713
7630.88783,0.07915
7632.92818,0.08093
7634.96852,0.14334
7637.00887,0.22803
7639.04921,0.27556
7641.08956,0.26846
7643.12990,0.16067
7645.17024,0.03884
7647.21059,0.02961
7649.25093,0.06322
7651.29128,0.13999
7653.33162,0.14474
7655.37197,0.12118
7657.41231,0.17099
7659.45265,0.18636
7661.49300,0.17761
7663.53334,0.14839
7665.57369,0.08932
7667.61403,0.07743
7669.65438,0.11138
7671.69472,0.14790
7673.73507,0.14106
7675.77541,0.11851
7677.81575,0.13061
7679.85610,0.18116
7681.89644,0.17621
7683.93679,0.15815
7685.97713,0.09613
7688.01748,0.07294
7690.05782,0.15967
7692.09816,0.25547
7694.13851,0.25271
7696.17885,0.24232
7698.21920,0.18025
7700.25954,0.06047
7702.29989,0.04613
7704.34023,0.13479
7706.38057,0.27722
7708.42092,0.35326
7710.46126,0.32863
7712.50161,0.30748
7714.54195,0.28373
7716.58230,0.21847
7718.62264,0.23599
7720.66298,0.23667
7722.70333,0.18837
7724.74367,0.17981
7726.78402,0.17066
7728.82436,0.09367
7730.86471,0.06969
7732.90505,0.11446
7734.94540,0.13112
7736.98574,0.14076
7739.02608,0.13998
7741.06643,0.19595
7743.10677,0.23269
7745.14712,0.18649
7747.18746,0.10748
7749.22781,0.12087
7751.26815,0.20013
7753.30849,0.20705
7755.34884,0.21768
7757.38918,0.24915
7759.42953,0.22684
7761.46987,0.19900
7763.51022,0.25140
7765.55056,0.24885
7767.59090,0.16892
7769.63125,0.11533
7771.67159,0.08923
7773.71194,0.13332
7775.75228,0.20073
7777.79263,0.26860
7779.83297,0.27309
7781.87332,0.13003
7783.91366,0.05776
7785.95400,0.10629
7787.99435,0.04230
7790.03469,0.18925
7792.07504,0.29091
7794.11538,0.30960
7796.15573,0.32331
7798.19607,0.30962
7800.23641,0.22613
7802.27676,0.21480
7804.31710,0.25165
7806.35745,0.24409
7808.39779,0.19487
7810.43814,0.05270
7812.47848,0.13451
7814.51882,0.17498
7816.55917,0.18645
7818.59951,0.14454
7820.63986,0.09386
7822.68020,0.15611
7824.72055,0.21883
7826.76089,0.23962
7828.80124,0.20377
7830.84158,0.18226
7832.88192,0.11817
7834.92227,0.25609
7836.96261,0.31283
7839.00296,0.27961
7841.04330,0.26765
7843.08365,0.23192
7845.12399,0.08774
7847.16433,0.12308
7849.20468,0.20901
7851.24502,0.18006
7853.28537,0.15841
7855.32571,0.18929
7857.36606,0.18336
7859.40640,0.15947
7861.44674,0.14754
7863.48709,0.16100
7865.52743,0.20396
7867.56778,0.27594
7869.60812,0.31394
7871.64847,0.39892
7873.68881,0.41875
7875.72915,0.25541
7877.76950,0.09818
7879.80984,0.14756
7881.85019,0.15890
7883.89053,0.22468
7885.93088,0.34650
7887.97122,0.36839
7890.01157,0.30877
7892.05191,0.23692
7894.09225,0.05160
7896.13260,0.15155
7898.17294,0.11163
7900.21329,0.08660
7902.25363,0.11226
7904.29398,0.14042
7906.33432,0.28289
7908.37466,0.40605
7910.41501,0.51870
7912.45535,0.55407
7914.49570,0.52964
7916.53604,0.46877
7918.57639,0.34988
7920.61673,0.27586
7922.65707,0.26871
7924.69742,0.31602
7926.73776,0.27406
7928.77811,0.12304
7930.81845,0.07425
7932.85880,0.09558
7934.89914,0.11221
7936.93949,0.32073
7938.97983,0.34473
7941.02017,0.20130
7943.06052,0.12543
7945.10086,0.09592
7947.14121,0.11334
7949.18155,0.10168
7951.22190,0.10037
7953.26224,0.14274
7955.30258,0.12801
7957.34293,0.15313
7959.38327,0.02820
7961.42362,0.20632
7963.46396,0.23436
7965.50431,0.18961
7967.54465,0.26856
7969.58499,0.25146
7971.62534,0.17291
7973.66568,0.16935
7975.70603,0.25809
7977.74637,0.38876
7979.78672,0.46993
7981.82706,0.44137
7983.86740,0.27715
7985.90775,0.26810
7987.94809,0.38817
7989.98844,0.44599
7992.02878,0.36990
7994.06913,0.21303
7996.10947,0.10993
