499.88436,0.08443
501.92471,0.02175
503.96505,0.03207
506.00540,0.07545
508.04574,0.26692
510.08609,0.40066
512.12643,0.45321
514.16677,0.35562
516.20712,0.16042
518.24746,0.09933
520.28781,0.04005
522.32815,0.07389
524.36850,0.05325
526.40884,0.06145
528.44918,0.16950
530.48953,0.25855
532.52987,0.20731
534.57022,0.12584
536.61056,0.09682
538.65091,0.11394
540.69125,0.13810
542.73159,0.16498
544.77194,0.20451
546.81228,0.21527
548.85263,0.18764
550.89297,0.15428
552.93332,0.13636
554.97366,0.13265
557.01400,0.13976
559.05435,0.15952
561.09469,0.17714
563.13504,0.18613
565.17538,0.19233
567.21573,0.19721
569.25607,0.19935
571.29642,0.19160
573.33676,0.18471
575.37710,0.18551
577.41745,0.18472
579.45779,0.17944
581.49814,0.17521
583.53848,0.17094
585.57883,0.16589
587.61917,0.16465
589.65951,0.16699
591.69986,0.16726
593.74020,0.16570
595.78055,0.16979
597.82089,0.17694
599.86124,0.17216
601.90158,0.15590
603.94192,0.14689
605.98227,0.14973
608.02261,0.15298
610.06296,0.15300
612.10330,0.15332
614.14365,0.15539
616.18399,0.15893
618.22434,0.16305
620.26468,0.16685
622.30502,0.17018
624.34537,0.17255
626.38571,0.17360
628.42606,0.17520
630.46640,0.17670
632.50675,0.17526
634.54709,0.17256
636.58743,0.17130
638.62778,0.17202
640.66812,0.17346
642.70847,0.17337
644.74881,0.17198
646.78916,0.17169
648.82950,0.17424
650.86984,0.17770
652.91019,0.17840
654.95053,0.17785
656.99088,0.17984
659.03122,0.18253
661.07157,0.18346
663.11191,0.18411
665.15226,0.18545
667.19260,0.18719
669.23294,0.18861
671.27329,0.18987
673.31363,0.19153
675.35398,0.19219
677.39432,0.19079
679.43467,0.18978
681.47501,0.19087
683.51535,0.18796
685.55570,0.17697
687.59604,0.16684
689.63639,0.16458
691.67673,0.16652
693.71708,0.16904
695.75742,0.17187
697.79776,0.17500
699.83811,0.17770
701.87845,0.17960
703.91880,0.18127
705.95914,0.18314
707.99949,0.18475
710.03983,0.18587
712.08017,0.18725
714.12052,0.18866
716.16086,0.18928
718.20121,0.18951
720.24155,0.18990
722.28190,0.19105
724.32224,0.19314
726.36259,0.19487
728.40293,0.19582
730.44327,0.19727
732.48362,0.19907
734.52396,0.20034
736.56431,0.20138
738.60465,0.20238
740.64500,0.20330
742.68534,0.20420
744.72568,0.20489
746.76603,0.20590
748.80637,0.20762
750.84672,0.20902
752.88706,0.20918
754.92741,0.20870
756.96775,0.20868
759.00809,0.20932
761.04844,0.21055
763.08878,0.21223
765.12913,0.21344
767.16947,0.21398
769.20982,0.21497
771.25016,0.21694
773.29051,0.21916
775.33085,0.22096
777.37119,0.22267
779.41154,0.22449
781.45188,0.22609
783.49223,0.22786
785.53257,0.23028
787.57292,0.23328
789.61326,0.23691
791.65360,0.24111
793.69395,0.24511
795.73429,0.24848
797.77464,0.25144
799.81498,0.25417
801.85533,0.25716
803.89567,0.26096
805.93601,0.26496
807.97636,0.26824
810.01670,0.27101
812.05705,0.27419
814.09739,0.27817
816.13774,0.28254
818.17808,0.28713
820.21842,0.29209
822.25877,0.29682
824.29911,0.30057
826.33946,0.30362
828.37980,0.30611
830.42015,0.30781
832.46049,0.30984
834.50084,0.31364
836.54118,0.31934
838.58152,0.32753
840.62187,0.33927
842.66221,0.35445
844.70256,0.37260
846.74290,0.39126
848.78325,0.40479
850.82359,0.40761
852.86393,0.39529
854.90428,0.36692
856.94462,0.33255
858.98497,0.30927
861.02531,0.30360
863.06566,0.30835
865.10600,0.31435
867.14634,0.31728
869.18669,0.31687
871.22703,0.31092
873.26738,0.29547
875.30772,0.27646
877.34807,0.27109
879.38841,0.28876
881.42876,0.32145
883.46910,0.35579
885.50944,0.38235
887.54979,0.39602
889.59013,0.39614
891.63048,0.38402
893.67082,0.36034
895.71117,0.32959
897.75151,0.30565
899.79185,0.30405
901.83220,0.32393
903.87254,0.34499
905.91289,0.34692
907.95323,0.32816
909.99358,0.30584
912.03392,0.29667
914.07426,0.29986
916.11461,0.30751
918.15495,0.31895
920.19530,0.33223
922.23564,0.34357
924.27599,0.35724
926.31633,0.37685
928.35667,0.39705
930.39702,0.41113
932.43736,0.41779
934.47771,0.41915
936.51805,0.41671
938.55840,0.41133
940.59874,0.40532
942.63909,0.40085
944.67943,0.39529
946.71977,0.38389
948.76012,0.37017
950.80046,0.36566
952.84081,0.37296
954.88115,0.38181
956.92150,0.38500
958.96184,0.38329
961.00218,0.37877
963.04253,0.37285
965.08287,0.36656
967.12322,0.35999
969.16356,0.35261
971.20391,0.34425
973.24425,0.33562
975.28459,0.32843
977.32494,0.32332
979.36528,0.31854
981.40563,0.31259
983.44597,0.30545
985.48632,0.29740
987.52666,0.28888
989.56701,0.28043
991.60735,0.27216
993.64769,0.26378
995.68804,0.25510
997.72838,0.24641
999.76873,0.23782
1001.80907,0.22918
1003.84942,0.22044
1005.88976,0.21153
1007.93010,0.20274
1009.97045,0.19437
1012.01079,0.18570
1014.05114,0.17611
1016.09148,0.16686
1018.13183,0.16073
1020.17217,0.15862
1022.21251,0.15726
1024.25286,0.15506
1026.29320,0.15594
1028.33355,0.16126
1030.37389,0.16635
1032.41424,0.16898
1034.45458,0.17049
1036.49493,0.17024
1038.53527,0.16744
1040.57561,0.16302
1042.61596,0.15809
1044.65630,0.15331
1046.69665,0.14862
1048.73699,0.14362
1050.77734,0.13825
1052.81768,0.13288
1054.85802,0.12805
1056.89837,0.12360
1058.93871,0.11885
1060.97906,0.11390
1063.01940,0.10916
1065.05975,0.10442
1067.10009,0.09963
1069.14043,0.09505
1071.18078,0.09031
1073.22112,0.08518
1075.26147,0.07981
1077.30181,0.07405
1079.34216,0.06808
1081.38250,0.06266
1083.42284,0.05776
1085.46319,0.05243
1087.50353,0.04655
1089.54388,0.04054
1091.58422,0.03439
1093.62457,0.02860
1095.66491,0.02388
1097.70526,0.01996
1099.74560,0.01634
1101.78594,0.01312
1103.82629,0.01070
1105.86663,0.00912
1107.90698,0.00791
1109.94732,0.00680
1111.98767,0.00605
1114.02801,0.00573
1116.06835,0.00538
1118.10870,0.00497
1120.14904,0.00503
1122.18939,0.00543
1124.22973,0.00570
1126.27008,0.00602
1128.31042,0.00652
1130.35076,0.00718
1132.39111,0.00817
1134.43145,0.00928
1136.47180,0.01021
1138.51214,0.01112
1140.55249,0.01242
1142.59283,0.01408
1144.63318,0.01549
1146.67352,0.01648
1148.71386,0.01736
1150.75421,0.01839
1152.79455,0.01969
1154.83490,0.02109
1156.87524,0.02223
1158.91559,0.02331
1160.95593,0.02465
1162.99627,0.02602
1165.03662,0.02741
1167.07696,0.02891
1169.11731,0.03021
1171.15765,0.03142
1173.19800,0.03277
1175.23834,0.03396
1177.27868,0.03477
1179.31903,0.03505
1181.35937,0.03466
1183.39972,0.03384
1185.44006,0.03284
1187.48041,0.03219
1189.52075,0.03237
1191.56109,0.03328
1193.60144,0.03462
1195.64178,0.03622
1197.68213,0.03793
1199.72247,0.03973
1201.76282,0.04158
1203.80316,0.04310
1205.84351,0.04437
1207.88385,0.04574
1209.92419,0.04703
1211.96454,0.04809
1214.00488,0.04905
1216.04523,0.05007
1218.08557,0.05115
1220.12592,0.05197
1222.16626,0.05246
1224.20660,0.05305
1226.24695,0.05380
1228.28729,0.05446
1230.32764,0.05499
1232.36798,0.05528
1234.40833,0.05519
1236.44867,0.05492
1238.48901,0.05469
1240.52936,0.05424
1242.56970,0.05323
1244.61005,0.05169
1246.65039,0.04966
1248.69074,0.04727
1250.73108,0.04488
1252.77143,0.04283
1254.81177,0.04128
1256.85211,0.04018
1258.89246,0.03965
1260.93280,0.03990
1262.97315,0.04073
1265.01349,0.04172
1267.05384,0.04264
1269.09418,0.04375
1271.13452,0.04518
1273.17487,0.04650
1275.21521,0.04734
1277.25556,0.04773
1279.29590,0.04807
1281.33625,0.04880
1283.37659,0.04977
1285.41693,0.05068
1287.45728,0.05132
1289.49762,0.05162
1291.53797,0.05175
1293.57831,0.05174
1295.61866,0.05163
1297.65900,0.05166
1299.69934,0.05175
1301.73969,0.05159
1303.78003,0.05125
1305.82038,0.05106
1307.86072,0.05125
1309.90107,0.05191
1311.94141,0.05261
1313.98176,0.05317
1316.02210,0.05372
1318.06244,0.05410
1320.10279,0.05440
1322.14313,0.05500
1324.18348,0.05576
1326.22382,0.05639
1328.26417,0.05680
1330.30451,0.05698
1332.34485,0.05728
1334.38520,0.05783
1336.42554,0.05829
1338.46589,0.05847
1340.50623,0.05849
1342.54658,0.05854
1344.58692,0.05878
1346.62726,0.05925
1348.66761,0.05962
1350.70795,0.05968
1352.74830,0.05979
1354.78864,0.06031
1356.82899,0.06110
1358.86933,0.06166
1360.90968,0.06170
1362.95002,0.06147
1364.99036,0.06147
1367.03071,0.06178
1369.07105,0.06209
1371.11140,0.06235
1373.15174,0.06293
1375.19209,0.06360
1377.23243,0.06375
1379.27277,0.06359
1381.31312,0.06344
1383.35346,0.06318
1385.39381,0.06291
1387.43415,0.06288
1389.47450,0.06299
1391.51484,0.06323
1393.55518,0.06369
1395.59553,0.06408
1397.63587,0.06440
1399.67622,0.06511
1401.71656,0.06576
1403.75691,0.06595
1405.79725,0.06611
1407.83760,0.06657
1409.87794,0.06700
1411.91828,0.06710
1413.95863,0.06716
1415.99897,0.06746
1418.03932,0.06779
1420.07966,0.06809
1422.12001,0.06851
1424.16035,0.06902
1426.20069,0.06935
1428.24104,0.06944
1430.28138,0.06953
1432.32173,0.06983
1434.36207,0.07016
1436.40242,0.07043
1438.44276,0.07092
1440.48310,0.07144
1442.52345,0.07169
1444.56379,0.07188
1446.60414,0.07207
1448.64448,0.07220
1450.68483,0.07239
1452.72517,0.07245
1454.76551,0.07209
1456.80586,0.07131
1458.84620,0.07068
1460.88655,0.07033
1462.92689,0.06992
1464.96724,0.06948
1467.00758,0.06925
1469.04793,0.06929
1471.08827,0.06926
1473.12861,0.06897
1475.16896,0.06903
1477.20930,0.06970
1479.24965,0.07058
1481.28999,0.07133
1483.33034,0.07207
1485.37068,0.07284
1487.41102,0.07337
1489.45137,0.07369
1491.49171,0.07411
1493.53206,0.07455
1495.57240,0.07516
1497.61275,0.07646
1499.65309,0.07829
1501.69343,0.07981
1503.73378,0.08058
1505.77412,0.08025
1507.81447,0.07739
1509.85481,0.07221
1511.89516,0.06606
1513.93550,0.06087
1515.97585,0.05829
1518.01619,0.05801
1520.05653,0.05898
1522.09688,0.06067
1524.13722,0.06243
1526.17757,0.06391
1528.21791,0.06516
1530.25826,0.06610
1532.29860,0.06686
1534.33894,0.06752
1536.37929,0.06805
1538.41963,0.06851
1540.45998,0.06887
1542.50032,0.06929
1544.54067,0.06997
1546.58101,0.07043
1548.62135,0.07064
1550.66170,0.07094
1552.70204,0.07120
1554.74239,0.07130
1556.78273,0.07118
1558.82308,0.07128
1560.86342,0.07227
1562.90376,0.07309
1564.94411,0.07349
1566.98445,0.07371
1569.02480,0.07401
1571.06514,0.07457
1573.10549,0.07504
1575.14583,0.07510
1577.18618,0.07491
1579.22652,0.07498
1581.26686,0.07498
1583.30721,0.07448
1585.34755,0.07376
1587.38790,0.07351
1589.42824,0.07383
1591.46859,0.07421
1593.50893,0.07445
1595.54927,0.07462
1597.58962,0.07453
1599.62996,0.07421
1601.67031,0.07408
1603.71065,0.07398
1605.75100,0.07337
1607.79134,0.07227
1609.83168,0.07104
1611.87203,0.06991
1613.91237,0.06912
1615.95272,0.06900
1617.99306,0.06930
1620.03341,0.06949
1622.07375,0.06990
1624.11410,0.07055
1626.15444,0.07103
1628.19478,0.07152
1630.23513,0.07185
1632.27547,0.07168
1634.31582,0.07133
1636.35616,0.07136
1638.39651,0.07181
1640.43685,0.07228
1642.47719,0.07248
1644.51754,0.07234
1646.55788,0.07221
1648.59823,0.07247
1650.63857,0.07284
1652.67892,0.07327
1654.71926,0.07378
1656.75960,0.07388
1658.79995,0.07357
1660.84029,0.07340
1662.88064,0.07382
1664.92098,0.07423
1666.96133,0.07422
1669.00167,0.07406
1671.04201,0.07402
1673.08236,0.07422
1675.12270,0.07465
1677.16305,0.07502
1679.20339,0.07507
1681.24374,0.07495
1683.28408,0.07487
1685.32443,0.07504
1687.36477,0.07544
1689.40511,0.07575
1691.44546,0.07583
1693.48580,0.07587
1695.52615,0.07602
1697.56649,0.07599
1699.60684,0.07595
1701.64718,0.07641
1703.68752,0.07679
1705.72787,0.07695
1707.76821,0.07717
1709.80856,0.07742
1711.84890,0.07756
1713.88925,0.07743
1715.92959,0.07716
1717.96993,0.07725
1720.01028,0.07771
1722.05062,0.07822
1724.09097,0.07846
1726.13131,0.07833
1728.17166,0.07823
1730.21200,0.07834
1732.25235,0.07845
1734.29269,0.07851
1736.33303,0.07858
1738.37338,0.07868
1740.41372,0.07870
1742.45407,0.07854
1744.49441,0.07818
1746.53476,0.07778
1748.57510,0.07768
1750.61544,0.07797
1752.65579,0.07825
1754.69613,0.07825
1756.73648,0.07821
1758.77682,0.07832
1760.81717,0.07858
1762.85751,0.07875
1764.89785,0.07866
1766.93820,0.07859
1768.97854,0.07868
1771.01889,0.07891
1773.05923,0.07921
1775.09958,0.07917
1777.13992,0.07878
1779.18027,0.07847
1781.22061,0.07844
1783.26095,0.07856
1785.30130,0.07869
1787.34164,0.07875
1789.38199,0.07884
1791.42233,0.07898
1793.46268,0.07915
1795.50302,0.07926
1797.54336,0.07920
1799.58371,0.07906
1801.62405,0.07894
1803.66440,0.07899
1805.70474,0.07925
1807.74509,0.07939
1809.78543,0.07922
1811.82577,0.07905
1813.86612,0.07921
1815.90646,0.07952
1817.94681,0.07971
1819.98715,0.07977
1822.02750,0.07980
1824.06784,0.07983
1826.10818,0.07979
1828.14853,0.07971
1830.18887,0.07970
1832.22922,0.07980
1834.26956,0.08001
1836.30991,0.08018
1838.35025,0.08015
1840.39060,0.08003
1842.43094,0.08004
1844.47128,0.08026
1846.51163,0.08055
1848.55197,0.08071
1850.59232,0.08082
1852.63266,0.08089
1854.67301,0.08095
1856.71335,0.08105
1858.75369,0.08099
1860.79404,0.08089
1862.83438,0.08102
1864.87473,0.08108
1866.91507,0.08093
1868.95542,0.08085
1870.99576,0.08105
1873.03610,0.08137
1875.07645,0.08150
1877.11679,0.08144
1879.15714,0.08129
1881.19748,0.08115
1883.23783,0.08118
1885.27817,0.08137
1887.31852,0.08127
1889.35886,0.08098
1891.39920,0.08116
1893.43955,0.08157
1895.47989,0.08156
1897.52024,0.08139
1899.56058,0.08146
1901.60093,0.08161
1903.64127,0.08152
1905.68161,0.08139
1907.72196,0.08153
1909.76230,0.08173
1911.80265,0.08166
1913.84299,0.08167
1915.88334,0.08194
1917.92368,0.08205
1919.96402,0.08196
1922.00437,0.08211
1924.04471,0.08227
1926.08506,0.08208
1928.12540,0.08184
1930.16575,0.08189
1932.20609,0.08220
1934.24643,0.08248
1936.28678,0.08251
1938.32712,0.08259
1940.36747,0.08294
1942.40781,0.08321
1944.44816,0.08318
1946.48850,0.08324
1948.52885,0.08366
1950.56919,0.08404
1952.60953,0.08407
1954.64988,0.08399
1956.69022,0.08391
1958.73057,0.08369
1960.77091,0.08345
1962.81126,0.08350
1964.85160,0.08369
1966.89194,0.08386
1968.93229,0.08408
1970.97263,0.08419
1973.01298,0.08403
1975.05332,0.08373
1977.09367,0.08352
1979.13401,0.08347
1981.17435,0.08338
1983.21470,0.08330
1985.25504,0.08344
1987.29539,0.08375
1989.33573,0.08398
1991.37608,0.08403
1993.41642,0.08405
1995.45677,0.08400
1997.49711,0.08382
1999.53745,0.08382
2001.57780,0.08407
2003.61814,0.08423
2005.65849,0.08414
2007.69883,0.08387
2009.73918,0.08355
2011.77952,0.08332
2013.81986,0.08338
2015.86021,0.08356
2017.90055,0.08362
2019.94090,0.08365
2021.98124,0.08370
2024.02159,0.08370
2026.06193,0.08359
2028.10227,0.08359
2030.14262,0.08377
2032.18296,0.08384
2034.22331,0.08390
2036.26365,0.08405
2038.30400,0.08407
2040.34434,0.08398
2042.38468,0.08390
2044.42503,0.08382
2046.46537,0.08387
2048.50572,0.08393
2050.54606,0.08380
2052.58641,0.08376
2054.62675,0.08397
2056.66710,0.08422
2058.70744,0.08434
2060.74778,0.08426
2062.78813,0.08415
2064.82847,0.08414
2066.86882,0.08419
2068.90916,0.08417
2070.94951,0.08416
2072.98985,0.08427
2075.03019,0.08441
2077.07054,0.08439
2079.11088,0.08430
2081.15123,0.08432
2083.19157,0.08430
2085.23192,0.08424
2087.27226,0.08434
2089.31260,0.08465
2091.35295,0.08496
2093.39329,0.08499
2095.43364,0.08489
2097.47398,0.08495
2099.51433,0.08515
2101.55467,0.08531
2103.59502,0.08534
2105.63536,0.08525
2107.67570,0.08522
2109.71605,0.08514
2111.75639,0.08491
2113.79674,0.08496
2115.83708,0.08526
2117.87743,0.08531
2119.91777,0.08521
2121.95811,0.08530
2123.99846,0.08544
2126.03880,0.08552
2128.07915,0.08542
2130.11949,0.08523
2132.15984,0.08535
2134.20018,0.08570
2136.24052,0.08583
2138.28087,0.08563
2140.32121,0.08529
2142.36156,0.08506
2144.40190,0.08507
2146.44225,0.08530
2148.48259,0.08563
2150.52294,0.08590
2152.56328,0.08604
2154.60362,0.08607
2156.64397,0.08610
2158.68431,0.08621
2160.72466,0.08628
2162.76500,0.08619
2164.80535,0.08598
2166.84569,0.08584
2168.88603,0.08578
2170.92638,0.08580
2172.96672,0.08596
2175.00707,0.08623
2177.04741,0.08641
2179.08776,0.08643
2181.12810,0.08644
2183.16844,0.08659
2185.20879,0.08681
2187.24913,0.08691
2189.28948,0.08694
2191.32982,0.08706
2193.37017,0.08721
2195.41051,0.08723
2197.45085,0.08705
2199.49120,0.08692
2201.53154,0.08703
2203.57189,0.08715
2205.61223,0.08705
2207.65258,0.08704
2209.69292,0.08732
2211.73327,0.08769
2213.77361,0.08778
2215.81395,0.08740
2217.85430,0.08668
2219.89464,0.08617
2221.93499,0.08621
2223.97533,0.08636
2226.01568,0.08628
2228.05602,0.08616
2230.09636,0.08600
2232.13671,0.08580
2234.17705,0.08566
2236.21740,0.08564
2238.25774,0.08569
2240.29809,0.08559
2242.33843,0.08551
2244.37877,0.08572
2246.41912,0.08602
2248.45946,0.08607
2250.49981,0.08571
2252.54015,0.08551
2254.58050,0.08573
2256.62084,0.08574
2258.66119,0.08543
2260.70153,0.08528
2262.74187,0.08550
2264.78222,0.08575
2266.82256,0.08561
2268.86291,0.08536
2270.90325,0.08532
2272.94360,0.08527
2274.98394,0.08512
2277.02428,0.08498
2279.06463,0.08502
2281.10497,0.08552
2283.14532,0.08603
2285.18566,0.08614
2287.22601,0.08602
2289.26635,0.08585
2291.30669,0.08580
2293.34704,0.08578
2295.38738,0.08558
2297.42773,0.08549
2299.46807,0.08579
2301.50842,0.08611
2303.54876,0.08608
2305.58910,0.08571
2307.62945,0.08540
2309.66979,0.08544
2311.71014,0.08575
2313.75048,0.08602
2315.79083,0.08612
2317.83117,0.08643
2319.87152,0.08689
2321.91186,0.08705
2323.95220,0.08671
2325.99255,0.08600
2328.03289,0.08540
2330.07324,0.08531
2332.11358,0.08549
2334.15393,0.08557
2336.19427,0.08581
2338.23461,0.08645
2340.27496,0.08671
2342.31530,0.08636
2344.35565,0.08626
2346.39599,0.08624
2348.43634,0.08634
2350.47668,0.08679
2352.51702,0.08685
2354.55737,0.08617
2356.59771,0.08587
2358.63806,0.08668
2360.67840,0.08801
2362.71875,0.08883
2364.75909,0.08877
2366.79944,0.08826
2368.83978,0.08762
2370.88012,0.08705
2372.92047,0.08684
2374.96081,0.08708
2377.00116,0.08729
2379.04150,0.08699
2381.08185,0.08650
2383.12219,0.08633
2385.16253,0.08645
2387.20288,0.08648
2389.24322,0.08656
2391.28357,0.08683
2393.32391,0.08682
2395.36426,0.08652
2397.40460,0.08631
2399.44494,0.08613
2401.48529,0.08594
2403.52563,0.08590
2405.56598,0.08604
2407.60632,0.08633
2409.64667,0.08653
2411.68701,0.08648
2413.72735,0.08635
2415.76770,0.08599
2417.80804,0.08549
2419.84839,0.08534
2421.88873,0.08543
2423.92908,0.08545
2425.96942,0.08542
2428.00977,0.08544
2430.05011,0.08534
2432.09045,0.08520
2434.13080,0.08525
2436.17114,0.08531
2438.21149,0.08522
2440.25183,0.08504
2442.29218,0.08493
2444.33252,0.08495
2446.37286,0.08521
2448.41321,0.08574
2450.45355,0.08614
2452.49390,0.08610
2454.53424,0.08594
2456.57459,0.08590
2458.61493,0.08566
2460.65527,0.08535
2462.69562,0.08538
2464.73596,0.08559
2466.77631,0.08569
2468.81665,0.08591
2470.85700,0.08617
2472.89734,0.08601
2474.93769,0.08559
2476.97803,0.08543
2479.01837,0.08542
2481.05872,0.08528
2483.09906,0.08529
2485.13941,0.08560
2487.17975,0.08603
2489.22010,0.08645
2491.26044,0.08650
2493.30078,0.08629
2495.34113,0.08642
2497.38147,0.08663
2499.42182,0.08635
2501.46216,0.08605
2503.50251,0.08622
2505.54285,0.08655
2507.58319,0.08659
2509.62354,0.08640
2511.66388,0.08631
2513.70423,0.08624
2515.74457,0.08593
2517.78492,0.08560
2519.82526,0.08568
2521.86561,0.08599
2523.90595,0.08618
2525.94629,0.08624
2527.98664,0.08617
2530.02698,0.08601
2532.06733,0.08579
2534.10767,0.08557
2536.14802,0.08546
2538.18836,0.08553
2540.22870,0.08553
2542.26905,0.08520
2544.30939,0.08480
2546.34974,0.08476
2548.39008,0.08515
2550.43043,0.08547
2552.47077,0.08528
2554.51111,0.08506
2556.55146,0.08526
2558.59180,0.08554
2560.63215,0.08556
2562.67249,0.08521
2564.71284,0.08483
2566.75318,0.08489
2568.79352,0.08487
2570.83387,0.08430
2572.87421,0.08376
2574.91456,0.08372
2576.95490,0.08387
2578.99525,0.08389
2581.03559,0.08395
2583.07594,0.08404
2585.11628,0.08393
2587.15662,0.08387
2589.19697,0.08389
2591.23731,0.08372
2593.27766,0.08348
2595.31800,0.08358
2597.35835,0.08390
2599.39869,0.08394
2601.43903,0.08378
2603.47938,0.08382
2605.51972,0.08405
2607.56007,0.08403
2609.60041,0.08372
2611.64076,0.08358
2613.68110,0.08393
2615.72144,0.08431
2617.76179,0.08414
2619.80213,0.08391
2621.84248,0.08405
2623.88282,0.08400
2625.92317,0.08373
2627.96351,0.08374
2630.00386,0.08400
2632.04420,0.08411
2634.08454,0.08407
2636.12489,0.08398
2638.16523,0.08390
2640.20558,0.08415
2642.24592,0.08457
2644.28627,0.08462
2646.32661,0.08457
2648.36695,0.08477
2650.40730,0.08490
2652.44764,0.08494
2654.48799,0.08516
2656.52833,0.08522
2658.56868,0.08499
2660.60902,0.08472
2662.64936,0.08458
2664.68971,0.08476
2666.73005,0.08492
2668.77040,0.08488
2670.81074,0.08498
2672.85109,0.08512
2674.89143,0.08487
2676.93177,0.08453
2678.97212,0.08429
2681.01246,0.08392
2683.05281,0.08366
2685.09315,0.08380
2687.13350,0.08409
2689.17384,0.08424
2691.21419,0.08443
2693.25453,0.08484
2695.29487,0.08500
2697.33522,0.08473
2699.37556,0.08446
2701.41591,0.08443
2703.45625,0.08450
2705.49660,0.08444
2707.53694,0.08433
2709.57728,0.08449
2711.61763,0.08474
2713.65797,0.08459
2715.69832,0.08418
2717.73866,0.08401
2719.77901,0.08404
2721.81935,0.08410
2723.85969,0.08431
2725.90004,0.08454
2727.94038,0.08439
2729.98073,0.08421
2732.02107,0.08441
2734.06142,0.08468
2736.10176,0.08482
2738.14211,0.08491
2740.18245,0.08484
2742.22279,0.08457
2744.26314,0.08417
2746.30348,0.08396
2748.34383,0.08394
2750.38417,0.08378
2752.42452,0.08358
2754.46486,0.08350
2756.50520,0.08357
2758.54555,0.08392
2760.58589,0.08422
2762.62624,0.08425
2764.66658,0.08424
2766.70693,0.08408
2768.74727,0.08374
2770.78761,0.08352
2772.82796,0.08348
2774.86830,0.08351
2776.90865,0.08365
2778.94899,0.08388
2780.98934,0.08393
2783.02968,0.08366
2785.07002,0.08328
2787.11037,0.08313
2789.15071,0.08322
2791.19106,0.08328
2793.23140,0.08320
2795.27175,0.08298
2797.31209,0.08295
2799.35244,0.08333
2801.39278,0.08352
2803.43312,0.08310
2805.47347,0.08282
2807.51381,0.08312
2809.55416,0.08341
2811.59450,0.08341
2813.63485,0.08335
2815.67519,0.08337
2817.71553,0.08348
2819.75588,0.08347
2821.79622,0.08337
2823.83657,0.08347
2825.87691,0.08367
2827.91726,0.08357
2829.95760,0.08312
2831.99794,0.08284
2834.03829,0.08305
2836.07863,0.08315
2838.11898,0.08292
2840.15932,0.08285
2842.19967,0.08293
2844.24001,0.08307
2846.28036,0.08333
2848.32070,0.08362
2850.36104,0.08374
2852.40139,0.08343
2854.44173,0.08298
2856.48208,0.08278
2858.52242,0.08263
2860.56277,0.08259
2862.60311,0.08280
2864.64345,0.08283
2866.68380,0.08236
2868.72414,0.08162
2870.76449,0.08111
2872.80483,0.08103
2874.84518,0.08099
2876.88552,0.08095
2878.92586,0.08110
2880.96621,0.08140
2883.00655,0.08147
2885.04690,0.08102
2887.08724,0.08067
2889.12759,0.08089
2891.16793,0.08103
2893.20828,0.08101
2895.24862,0.08117
2897.28896,0.08118
2899.32931,0.08114
2901.36965,0.08127
2903.41000,0.08116
2905.45034,0.08090
2907.49069,0.08077
2909.53103,0.08076
2911.57137,0.08105
2913.61172,0.08142
2915.65206,0.08161
2917.69241,0.08194
2919.73275,0.08239
2921.77310,0.08274
2923.81344,0.08286
2925.85378,0.08235
2927.89413,0.08136
2929.93447,0.08058
2931.97482,0.08024
2934.01516,0.07967
2936.05551,0.07875
2938.09585,0.07811
2940.13619,0.07797
2942.17654,0.07797
2944.21688,0.07775
2946.25723,0.07774
2948.29757,0.07809
2950.33792,0.07807
2952.37826,0.07769
2954.41861,0.07744
2956.45895,0.07727
2958.49929,0.07705
2960.53964,0.07678
2962.57998,0.07648
2964.62033,0.07620
2966.66067,0.07606
2968.70102,0.07604
2970.74136,0.07589
2972.78170,0.07575
2974.82205,0.07600
2976.86239,0.07637
2978.90274,0.07648
2980.94308,0.07647
2982.98343,0.07630
2985.02377,0.07588
2987.06411,0.07576
2989.10446,0.07621
2991.14480,0.07671
2993.18515,0.07695
2995.22549,0.07702
2997.26584,0.07705
2999.30618,0.07704
3001.34653,0.07690
3003.38687,0.07696
3005.42721,0.07732
3007.46756,0.07763
3009.50790,0.07775
3011.54825,0.07776
3013.58859,0.07781
3015.62894,0.07796
3017.66928,0.07816
3019.70962,0.07816
3021.74997,0.07790
3023.79031,0.07794
3025.83066,0.07835
3027.87100,0.07842
3029.91135,0.07787
3031.95169,0.07738
3033.99203,0.07761
3036.03238,0.07808
3038.07272,0.07806
3040.11307,0.07787
3042.15341,0.07779
3044.19376,0.07765
3046.23410,0.07764
3048.27444,0.07766
3050.31479,0.07750
3052.35513,0.07769
3054.39548,0.07765
3056.43582,0.07694
3058.47617,0.07673
3060.51651,0.07730
3062.55686,0.07783
3064.59720,0.07803
3066.63754,0.07797
3068.67789,0.07779
3070.71823,0.07759
3072.75858,0.07745
3074.79892,0.07764
3076.83927,0.07817
3078.87961,0.07868
3080.91995,0.07892
3082.96030,0.07865
3085.00064,0.07806
3087.04099,0.07778
3089.08133,0.07789
3091.12168,0.07798
3093.16202,0.07804
3095.20236,0.07845
3097.24271,0.07889
3099.28305,0.07893
3101.32340,0.07873
3103.36374,0.07833
3105.40409,0.07774
3107.44443,0.07756
3109.48478,0.07796
3111.52512,0.07826
3113.56546,0.07823
3115.60581,0.07819
3117.64615,0.07817
3119.68650,0.07792
3121.72684,0.07758
3123.76719,0.07751
3125.80753,0.07772
3127.84787,0.07800
3129.88822,0.07812
3131.92856,0.07806
3133.96891,0.07793
3136.00925,0.07788
3138.04960,0.07809
3140.08994,0.07824
3142.13028,0.07814
3144.17063,0.07826
3146.21097,0.07839
3148.25132,0.07816
3150.29166,0.07790
3152.33201,0.07772
3154.37235,0.07770
3156.41269,0.07800
3158.45304,0.07834
3160.49338,0.07844
3162.53373,0.07826
3164.57407,0.07803
3166.61442,0.07788
3168.65476,0.07770
3170.69511,0.07768
3172.73545,0.07776
3174.77579,0.07770
3176.81614,0.07753
3178.85648,0.07723
3180.89683,0.07710
3182.93717,0.07738
3184.97752,0.07767
3187.01786,0.07782
3189.05820,0.07784
3191.09855,0.07779
3193.13889,0.07778
3195.17924,0.07771
3197.21958,0.07751
3199.25993,0.07732
3201.30027,0.07720
3203.34061,0.07705
3205.38096,0.07696
3207.42130,0.07695
3209.46165,0.07699
3211.50199,0.07719
3213.54234,0.07734
3215.58268,0.07732
3217.62303,0.07744
3219.66337,0.07780
3221.70371,0.07791
3223.74406,0.07750
3225.78440,0.07698
3227.82475,0.07670
3229.86509,0.07680
3231.90544,0.07717
3233.94578,0.07718
3235.98612,0.07679
3238.02647,0.07664
3240.06681,0.07673
3242.10716,0.07675
3244.14750,0.07703
3246.18785,0.07758
3248.22819,0.07762
3250.26853,0.07724
3252.30888,0.07704
3254.34922,0.07693
3256.38957,0.07694
3258.42991,0.07711
3260.47026,0.07722
3262.51060,0.07732
3264.55095,0.07719
3266.59129,0.07674
3268.63163,0.07669
3270.67198,0.07693
3272.71232,0.07675
3274.75267,0.07653
3276.79301,0.07686
3278.83336,0.07716
3280.87370,0.07702
3282.91404,0.07699
3284.95439,0.07729
3286.99473,0.07749
3289.03508,0.07720
3291.07542,0.07679
3293.11577,0.07668
3295.15611,0.07659
3297.19645,0.07645
3299.23680,0.07665
3301.27714,0.07691
3303.31749,0.07696
3305.35783,0.07694
3307.39818,0.07705
3309.43852,0.07758
3311.47886,0.07804
3313.51921,0.07765
3315.55955,0.07666
3317.59990,0.07609
3319.64024,0.07633
3321.68059,0.07648
3323.72093,0.07606
3325.76128,0.07566
3327.80162,0.07570
3329.84196,0.07574
3331.88231,0.07564
3333.92265,0.07578
3335.96300,0.07606
3338.00334,0.07632
3340.04369,0.07627
3342.08403,0.07586
3344.12437,0.07591
3346.16472,0.07627
3348.20506,0.07611
3350.24541,0.07576
3352.28575,0.07549
3354.32610,0.07537
3356.36644,0.07551
3358.40678,0.07554
3360.44713,0.07556
3362.48747,0.07578
3364.52782,0.07584
3366.56816,0.07572
3368.60851,0.07563
3370.64885,0.07555
3372.68920,0.07540
3374.72954,0.07495
3376.76988,0.07437
3378.81023,0.07426
3380.85057,0.07444
3382.89092,0.07459
3384.93126,0.07496
3386.97161,0.07535
3389.01195,0.07524
3391.05229,0.07493
3393.09264,0.07492
3395.13298,0.07523
3397.17333,0.07565
3399.21367,0.07580
3401.25402,0.07560
3403.29436,0.07544
3405.33470,0.07523
3407.37505,0.07490
3409.41539,0.07461
3411.45574,0.07420
3413.49608,0.07388
3415.53643,0.07391
3417.57677,0.07388
3419.61711,0.07347
3421.65746,0.07306
3423.69780,0.07301
3425.73815,0.07285
3427.77849,0.07245
3429.81884,0.07256
3431.85918,0.07336
3433.89953,0.07398
3435.93987,0.07411
3437.98021,0.07398
3440.02056,0.07380
3442.06090,0.07386
3444.10125,0.07406
3446.14159,0.07417
3448.18194,0.07426
3450.22228,0.07436
3452.26262,0.07421
3454.30297,0.07374
3456.34331,0.07319
3458.38366,0.07304
3460.42400,0.07359
3462.46435,0.07413
3464.50469,0.07383
3466.54503,0.07322
3468.58538,0.07329
3470.62572,0.07364
3472.66607,0.07329
3474.70641,0.07266
3476.74676,0.07270
3478.78710,0.07325
3480.82745,0.07381
3482.86779,0.07397
3484.90813,0.07357
3486.94848,0.07331
3488.98882,0.07357
3491.02917,0.07397
3493.06951,0.07402
3495.10986,0.07359
3497.15020,0.07332
3499.19054,0.07346
3501.23089,0.07354
3503.27123,0.07343
3505.31158,0.07336
3507.35192,0.07352
3509.39227,0.07374
3511.43261,0.07395
3513.47295,0.07431
3515.51330,0.07445
3517.55364,0.07411
3519.59399,0.07364
3521.63433,0.07369
3523.67468,0.07427
3525.71502,0.07427
3527.75536,0.07369
3529.79571,0.07365
3531.83605,0.07409
3533.87640,0.07443
3535.91674,0.07446
3537.95709,0.07398
3539.99743,0.07362
3542.03778,0.07390
3544.07812,0.07453
3546.11846,0.07521
3548.15881,0.07534
3550.19915,0.07480
3552.23950,0.07422
3554.27984,0.07384
3556.32019,0.07373
3558.36053,0.07387
3560.40087,0.07385
3562.44122,0.07362
3564.48156,0.07368
3566.52191,0.07396
3568.56225,0.07394
3570.60260,0.07380
3572.64294,0.07399
3574.68328,0.07450
3576.72363,0.07486
3578.76397,0.07454
3580.80432,0.07381
3582.84466,0.07344
3584.88501,0.07344
3586.92535,0.07365
3588.96570,0.07412
3591.00604,0.07448
3593.04638,0.07487
3595.08673,0.07556
3597.12707,0.07592
3599.16742,0.07563
3601.20776,0.07533
3603.24811,0.07513
3605.28845,0.07465
3607.32879,0.07416
3609.36914,0.07401
3611.40948,0.07429
3613.44983,0.07466
3615.49017,0.07475
3617.53052,0.07471
3619.57086,0.07503
3621.61120,0.07565
3623.65155,0.07563
3625.69189,0.07524
3627.73224,0.07555
3629.77258,0.07614
3631.81293,0.07615
3633.85327,0.07585
3635.89362,0.07559
3637.93396,0.07593
3639.97430,0.07646
3642.01465,0.07658
3644.05499,0.07646
3646.09534,0.07650
3648.13568,0.07683
3650.17603,0.07687
3652.21637,0.07654
3654.25671,0.07643
3656.29706,0.07669
3658.33740,0.07682
3660.37775,0.07669
3662.41809,0.07680
3664.45844,0.07703
3666.49878,0.07684
3668.53912,0.07658
3670.57947,0.07697
3672.61981,0.07711
3674.66016,0.07623
3676.70050,0.07561
3678.74085,0.07611
3680.78119,0.07681
3682.82153,0.07686
3684.86188,0.07650
3686.90222,0.07660
3688.94257,0.07680
3690.98291,0.07661
3693.02326,0.07639
3695.06360,0.07621
3697.10395,0.07659
3699.14429,0.07755
3701.18463,0.07826
3703.22498,0.07843
3705.26532,0.07853
3707.30567,0.07850
3709.34601,0.07797
3711.38636,0.07720
3713.42670,0.07692
3715.46704,0.07699
3717.50739,0.07666
3719.54773,0.07608
3721.58808,0.07604
3723.62842,0.07655
3725.66877,0.07706
3727.70911,0.07720
3729.74945,0.07687
3731.78980,0.07645
3733.83014,0.07620
3735.87049,0.07581
3737.91083,0.07556
3739.95118,0.07572
3741.99152,0.07583
3744.03187,0.07597
3746.07221,0.07647
3748.11255,0.07662
3750.15290,0.07663
3752.19324,0.07712
3754.23359,0.07744
3756.27393,0.07751
3758.31428,0.07752
3760.35462,0.07725
3762.39496,0.07709
3764.43531,0.07730
3766.47565,0.07711
3768.51600,0.07646
3770.55634,0.07614
3772.59669,0.07622
3774.63703,0.07656
3776.67737,0.07677
3778.71772,0.07662
3780.75806,0.07658
3782.79841,0.07688
3784.83875,0.07728
3786.87910,0.07766
3788.91944,0.07777
3790.95978,0.07712
3793.00013,0.07641
3795.04047,0.07647
3797.08082,0.07658
3799.12116,0.07642
3801.16151,0.07674
3803.20185,0.07733
3805.24220,0.07759
3807.28254,0.07797
3809.32288,0.07824
3811.36323,0.07789
3813.40357,0.07726
3815.44392,0.07683
3817.48426,0.07662
3819.52461,0.07624
3821.56495,0.07588
3823.60529,0.07603
3825.64564,0.07630
3827.68598,0.07641
3829.72633,0.07666
3831.76667,0.07722
3833.80702,0.07754
3835.84736,0.07719
3837.88770,0.07670
3839.92805,0.07664
3841.96839,0.07648
3844.00874,0.07610
3846.04908,0.07609
3848.08943,0.07632
3850.12977,0.07644
3852.17012,0.07700
3854.21046,0.07806
3856.25080,0.07832
3858.29115,0.07798
3860.33149,0.07726
3862.37184,0.07637
3864.41218,0.07607
3866.45253,0.07639
3868.49287,0.07684
3870.53321,0.07685
3872.57356,0.07627
3874.61390,0.07593
3876.65425,0.07575
3878.69459,0.07552
3880.73494,0.07574
3882.77528,0.07603
3884.81562,0.07631
3886.85597,0.07724
3888.89631,0.07837
3890.93666,0.07837
3892.97700,0.07677
3895.01735,0.07556
3897.05769,0.07613
3899.09803,0.07708
3901.13838,0.07632
3903.17872,0.07487
3905.21907,0.07469
3907.25941,0.07540
3909.29976,0.07598
3911.34010,0.07612
3913.38045,0.07613
3915.42079,0.07623
3917.46113,0.07637
3919.50148,0.07660
3921.54182,0.07664
3923.58217,0.07621
3925.62251,0.07572
3927.66286,0.07547
3929.70320,0.07545
3931.74354,0.07553
3933.78389,0.07530
3935.82423,0.07503
3937.86458,0.07536
3939.90492,0.07589
3941.94527,0.07574
3943.98561,0.07529
3946.02595,0.07523
3948.06630,0.07540
3950.10664,0.07582
3952.14699,0.07614
3954.18733,0.07594
3956.22768,0.07568
3958.26802,0.07542
3960.30837,0.07480
3962.34871,0.07452
3964.38905,0.07494
3966.42940,0.07536
3968.46974,0.07545
3970.51009,0.07521
3972.55043,0.07474
3974.59078,0.07460
3976.63112,0.07495
3978.67146,0.07501
3980.71181,0.07423
3982.75215,0.07361
3984.79250,0.07373
3986.83284,0.07401
3988.87319,0.07451
3990.91353,0.07522
3992.95387,0.07544
3994.99422,0.07510
3997.03456,0.07494
3999.07491,0.07517
4001.11525,0.07524
4003.15560,0.07498
4005.19594,0.07459
4007.23629,0.07413
4009.27663,0.07392
4011.31697,0.07413
4013.35732,0.07425
4015.39766,0.07407
4017.43801,0.07395
4019.47835,0.07344
4021.51870,0.07283
4023.55904,0.07354
4025.59938,0.07506
4027.63973,0.07555
4029.68007,0.07500
4031.72042,0.07439
4033.76076,0.07413
4035.80111,0.07434
4037.84145,0.07474
4039.88179,0.07486
4041.92214,0.07467
4043.96248,0.07464
4046.00283,0.07477
4048.04317,0.07459
4050.08352,0.07423
4052.12386,0.07384
4054.16420,0.07342
4056.20455,0.07305
4058.24489,0.07281
4060.28524,0.07302
4062.32558,0.07356
4064.36593,0.07427
4066.40627,0.07517
4068.44662,0.07533
4070.48696,0.07462
4072.52730,0.07421
4074.56765,0.07397
4076.60799,0.07354
4078.64834,0.07392
4080.68868,0.07496
4082.72903,0.07512
4084.76937,0.07420
4086.80971,0.07296
4088.85006,0.07214
4090.89040,0.07234
4092.93075,0.07313
4094.97109,0.07379
4097.01144,0.07415
4099.05178,0.07431
4101.09212,0.07402
4103.13247,0.07370
4105.17281,0.07409
4107.21316,0.07466
4109.25350,0.07461
4111.29385,0.07366
4113.33419,0.07233
4115.37454,0.07171
4117.41488,0.07214
4119.45522,0.07321
4121.49557,0.07421
4123.53591,0.07463
4125.57626,0.07463
4127.61660,0.07460
4129.65695,0.07435
4131.69729,0.07412
4133.73763,0.07426
4135.77798,0.07428
4137.81832,0.07377
4139.85867,0.07328
4141.89901,0.07340
4143.93936,0.07375
4145.97970,0.07388
4148.02004,0.07396
4150.06039,0.07409
4152.10073,0.07401
4154.14108,0.07395
4156.18142,0.07383
4158.22177,0.07308
4160.26211,0.07260
4162.30245,0.07315
4164.34280,0.07368
4166.38314,0.07353
4168.42349,0.07336
4170.46383,0.07350
4172.50418,0.07385
4174.54452,0.07400
4176.58487,0.07358
4178.62521,0.07324
4180.66555,0.07358
4182.70590,0.07427
4184.74624,0.07426
4186.78659,0.07308
4188.82693,0.07226
4190.86728,0.07263
4192.90762,0.07271
4194.94796,0.07253
4196.98831,0.07336
4199.02865,0.07409
4201.06900,0.07362
4203.10934,0.07331
4205.14969,0.07373
4207.19003,0.07380
4209.23037,0.07369
4211.27072,0.07413
4213.31106,0.07468
4215.35141,0.07473
4217.39175,0.07457
4219.43210,0.07415
4221.47244,0.07350
4223.51279,0.07390
4225.55313,0.07501
4227.59347,0.07513
4229.63382,0.07456
4231.67416,0.07379
4233.71451,0.07281
4235.75485,0.07258
4237.79520,0.07352
4239.83554,0.07445
4241.87588,0.07466
4243.91623,0.07453
4245.95657,0.07414
4247.99692,0.07355
4250.03726,0.07303
4252.07761,0.07278
4254.11795,0.07318
4256.15829,0.07369
4258.19864,0.07364
4260.23898,0.07338
4262.27933,0.07327
4264.31967,0.07341
4266.36002,0.07368
4268.40036,0.07386
4270.44070,0.07401
4272.48105,0.07371
4274.52139,0.07265
4276.56174,0.07141
4278.60208,0.07120
4280.64243,0.07226
4282.68277,0.07295
4284.72312,0.07307
4286.76346,0.07348
4288.80380,0.07361
4290.84415,0.07362
4292.88449,0.07386
4294.92484,0.07362
4296.96518,0.07348
4299.00553,0.07383
4301.04587,0.07396
4303.08621,0.07371
4305.12656,0.07346
4307.16690,0.07342
4309.20725,0.07330
4311.24759,0.07325
4313.28794,0.07354
4315.32828,0.07403
4317.36862,0.07442
4319.40897,0.07439
4321.44931,0.07375
4323.48966,0.07291
4325.53000,0.07289
4327.57035,0.07338
4329.61069,0.07329
4331.65104,0.07292
4333.69138,0.07296
4335.73172,0.07316
4337.77207,0.07312
4339.81241,0.07299
4341.85276,0.07285
4343.89310,0.07289
4345.93345,0.07338
4347.97379,0.07377
4350.01413,0.07324
4352.05448,0.07225
4354.09482,0.07194
4356.13517,0.07224
4358.17551,0.07233
4360.21586,0.07227
4362.25620,0.07237
4364.29654,0.07277
4366.33689,0.07332
4368.37723,0.07334
4370.41758,0.07305
4372.45792,0.07294
4374.49827,0.07261
4376.53861,0.07228
4378.57896,0.07268
4380.61930,0.07324
4382.65964,0.07345
4384.69999,0.07378
4386.74033,0.07372
4388.78068,0.07275
4390.82102,0.07215
4392.86137,0.07262
4394.90171,0.07310
4396.94205,0.07311
4398.98240,0.07294
4401.02274,0.07301
4403.06309,0.07378
4405.10343,0.07478
4407.14378,0.07512
4409.18412,0.07466
4411.22446,0.07398
4413.26481,0.07357
4415.30515,0.07378
4417.34550,0.07451
4419.38584,0.07495
4421.42619,0.07500
4423.46653,0.07497
4425.50687,0.07476
4427.54722,0.07482
4429.58756,0.07498
4431.62791,0.07428
4433.66825,0.07287
4435.70860,0.07184
4437.74894,0.07208
4439.78929,0.07298
4441.82963,0.07338
4443.86997,0.07350
4445.91032,0.07361
4447.95066,0.07362
4449.99101,0.07407
4452.03135,0.07469
4454.07170,0.07498
4456.11204,0.07500
4458.15238,0.07455
4460.19273,0.07443
4462.23307,0.07489
4464.27342,0.07462
4466.31376,0.07381
4468.35411,0.07337
4470.39445,0.07330
4472.43479,0.07319
4474.47514,0.07299
4476.51548,0.07340
4478.55583,0.07421
4480.59617,0.07457
4482.63652,0.07452
4484.67686,0.07427
4486.71721,0.07421
4488.75755,0.07397
4490.79789,0.07333
4492.83824,0.07317
4494.87858,0.07330
4496.91893,0.07361
4498.95927,0.07417
4500.99962,0.07418
4503.03996,0.07379
4505.08030,0.07351
4507.12065,0.07296
4509.16099,0.07247
4511.20134,0.07253
4513.24168,0.07250
4515.28203,0.07205
4517.32237,0.07171
4519.36271,0.07187
4521.40306,0.07226
4523.44340,0.07242
4525.48375,0.07231
4527.52409,0.07207
4529.56444,0.07224
4531.60478,0.07288
4533.64512,0.07312
4535.68547,0.07324
4537.72581,0.07367
4539.76616,0.07375
4541.80650,0.07367
4543.84685,0.07371
4545.88719,0.07339
4547.92754,0.07330
4549.96788,0.07336
4552.00822,0.07234
4554.04857,0.07124
4556.08891,0.07122
4558.12926,0.07149
4560.16960,0.07157
4562.20995,0.07133
4564.25029,0.07098
4566.29063,0.07119
4568.33098,0.07186
4570.37132,0.07236
4572.41167,0.07238
4574.45201,0.07240
4576.49236,0.07259
4578.53270,0.07257
4580.57304,0.07246
4582.61339,0.07252
4584.65373,0.07243
4586.69408,0.07203
4588.73442,0.07123
4590.77477,0.07003
4592.81511,0.06950
4594.85546,0.06993
4596.89580,0.07065
4598.93614,0.07158
4600.97649,0.07257
4603.01683,0.07344
4605.05718,0.07361
4607.09752,0.07336
4609.13787,0.07321
4611.17821,0.07242
4613.21855,0.07137
4615.25890,0.07106
4617.29924,0.07161
4619.33959,0.07258
4621.37993,0.07280
4623.42028,0.07163
4625.46062,0.07048
4627.50096,0.07119
4629.54131,0.07295
4631.58165,0.07331
4633.62200,0.07270
4635.66234,0.07305
4637.70269,0.07394
4639.74303,0.07436
4641.78337,0.07422
4643.82372,0.07342
4645.86406,0.07260
4647.90441,0.07240
4649.94475,0.07253
4651.98510,0.07262
4654.02544,0.07231
4656.06579,0.07153
4658.10613,0.07110
4660.14647,0.07128
4662.18682,0.07158
4664.22716,0.07212
4666.26751,0.07318
4668.30785,0.07412
4670.34820,0.07407
4672.38854,0.07262
4674.42888,0.07099
4676.46923,0.07114
4678.50957,0.07251
4680.54992,0.07319
4682.59026,0.07293
4684.63061,0.07207
4686.67095,0.07125
4688.71129,0.07068
4690.75164,0.07013
4692.79198,0.07123
4694.83233,0.07403
4696.87267,0.07501
4698.91302,0.07387
4700.95336,0.07288
4702.99371,0.07177
4705.03405,0.07068
4707.07439,0.07046
4709.11474,0.07062
4711.15508,0.07129
4713.19543,0.07210
4715.23577,0.07216
4717.27612,0.07157
4719.31646,0.07052
4721.35680,0.07006
4723.39715,0.07095
4725.43749,0.07178
4727.47784,0.07152
4729.51818,0.07114
4731.55853,0.07131
4733.59887,0.07116
4735.63921,0.07025
4737.67956,0.07043
4739.71990,0.07235
4741.76025,0.07337
4743.80059,0.07266
4745.84094,0.07241
4747.88128,0.07320
4749.92163,0.07378
4751.96197,0.07325
4754.00231,0.07217
4756.04266,0.07182
4758.08300,0.07255
4760.12335,0.07293
4762.16369,0.07195
4764.20404,0.07175
4766.24438,0.07249
4768.28472,0.07263
4770.32507,0.07324
4772.36541,0.07366
4774.40576,0.07320
4776.44610,0.07393
4778.48645,0.07545
4780.52679,0.07534
4782.56713,0.07366
4784.60748,0.07226
4786.64782,0.07201
4788.68817,0.07244
4790.72851,0.07236
4792.76886,0.07135
4794.80920,0.07061
4796.84954,0.07082
4798.88989,0.07070
4800.93023,0.06968
4802.97058,0.06944
4805.01092,0.06984
4807.05127,0.06972
4809.09161,0.06943
4811.13196,0.06977
4813.17230,0.07124
4815.21264,0.07210
4817.25299,0.07172
4819.29333,0.07232
4821.33368,0.07340
4823.37402,0.07366
4825.41437,0.07328
4827.45471,0.07262
4829.49505,0.07277
4831.53540,0.07305
4833.57574,0.07170
4835.61609,0.07004
4837.65643,0.06944
4839.69678,0.07032
4841.73712,0.07354
4843.77746,0.07591
4845.81781,0.07388
4847.85815,0.07056
4849.89850,0.06985
4851.93884,0.07070
4853.97919,0.07202
4856.01953,0.07318
4858.05988,0.07336
4860.10022,0.07357
4862.14056,0.07352
4864.18091,0.07224
4866.22125,0.07082
4868.26160,0.06995
4870.30194,0.06974
4872.34229,0.07095
4874.38263,0.07301
4876.42297,0.07433
4878.46332,0.07435
4880.50366,0.07407
4882.54401,0.07336
4884.58435,0.07083
4886.62470,0.06875
4888.66504,0.06931
4890.70538,0.07095
4892.74573,0.07242
4894.78607,0.07302
4896.82642,0.07232
4898.86676,0.07138
4900.90711,0.07124
4902.94745,0.07139
4904.98779,0.07161
4907.02814,0.07195
4909.06848,0.07252
4911.10883,0.07385
4913.14917,0.07436
4915.18952,0.07349
4917.22986,0.07254
4919.27021,0.07122
4921.31055,0.07036
4923.35089,0.07161
4925.39124,0.07282
4927.43158,0.07190
4929.47193,0.07004
4931.51227,0.06893
4933.55262,0.06880
4935.59296,0.06952
4937.63330,0.07057
4939.67365,0.07138
4941.71399,0.07234
4943.75434,0.07179
4945.79468,0.06868
4947.83503,0.06686
4949.87537,0.06770
4951.91571,0.06831
4953.95606,0.06827
4955.99640,0.06813
4958.03675,0.06742
4960.07709,0.06684
4962.11744,0.06766
4964.15778,0.07006
4966.19813,0.07193
4968.23847,0.07253
4970.27881,0.07321
4972.31916,0.07302
4974.35950,0.07159
4976.39985,0.07137
4978.44019,0.07220
4980.48054,0.07198
4982.52088,0.07146
4984.56122,0.07174
4986.60157,0.07238
4988.64191,0.07260
4990.68226,0.07235
4992.72260,0.07262
4994.76295,0.07405
4996.80329,0.07608
4998.84363,0.07643
5000.88398,0.07290
5002.92432,0.06875
5004.96467,0.06873
5007.00501,0.07140
5009.04536,0.07459
5011.08570,0.07588
5013.12604,0.07348
5015.16639,0.07155
5017.20673,0.07303
5019.24708,0.07448
5021.28742,0.07420
5023.32777,0.07387
5025.36811,0.07243
5027.40846,0.06968
5029.44880,0.06898
5031.48914,0.07027
5033.52949,0.07223
5035.56983,0.07319
5037.61018,0.07104
5039.65052,0.06837
5041.69087,0.06775
5043.73121,0.06885
5045.77155,0.07011
5047.81190,0.07040
5049.85224,0.07100
5051.89259,0.07081
5053.93293,0.06931
5055.97328,0.07088
5058.01362,0.07294
5060.05396,0.07150
5062.09431,0.07074
5064.13465,0.06954
5066.17500,0.06644
5068.21534,0.06558
5070.25569,0.06731
5072.29603,0.06901
5074.33638,0.06898
5076.37672,0.06744
5078.41706,0.06758
5080.45741,0.06995
5082.49775,0.07211
5084.53810,0.07428
5086.57844,0.07495
5088.61879,0.07448
5090.65913,0.07584
5092.69947,0.07577
5094.73982,0.07260
5096.78016,0.07141
5098.82051,0.07333
5100.86085,0.07311
5102.90120,0.07088
5104.94154,0.07016
5106.98188,0.06959
5109.02223,0.06840
5111.06257,0.06917
5113.10292,0.07145
5115.14326,0.07181
5117.18361,0.07032
5119.22395,0.06886
5121.26430,0.06808
5123.30464,0.06917
5125.34498,0.07154
5127.38533,0.07323
5129.42567,0.07397
5131.46602,0.07349
5133.50636,0.07196
5135.54671,0.07054
5137.58705,0.06846
5139.62739,0.06637
5141.66774,0.06626
5143.70808,0.06774
5145.74843,0.06943
5147.78877,0.07019
5149.82912,0.07082
5151.86946,0.07156
5153.90980,0.07129
5155.95015,0.07142
5157.99049,0.07116
5160.03084,0.06798
5162.07118,0.06589
5164.11153,0.06641
5166.15187,0.06707
5168.19221,0.06929
5170.23256,0.07158
5172.27290,0.07080
5174.31325,0.07028
5176.35359,0.07214
5178.39394,0.07384
5180.43428,0.07498
5182.47463,0.07653
5184.51497,0.07652
5186.55531,0.07266
5188.59566,0.06955
5190.63600,0.07168
5192.67635,0.07566
5194.71669,0.07778
5196.75704,0.07699
5198.79738,0.07364
5200.83772,0.06994
5202.87807,0.06797
5204.91841,0.07092
5206.95876,0.07844
5208.99910,0.07936
5211.03945,0.07170
5213.07979,0.06852
5215.12013,0.07224
5217.16048,0.07159
5219.20082,0.06487
5221.24117,0.06186
5223.28151,0.06420
5225.32186,0.06812
5227.36220,0.07213
5229.40255,0.07404
5231.44289,0.07341
5233.48323,0.07228
5235.52358,0.07144
5237.56392,0.07030
5239.60427,0.07027
5241.64461,0.07248
5243.68496,0.07673
5245.72530,0.07785
5247.76564,0.07199
5249.80599,0.06531
5251.84633,0.06399
5253.88668,0.06502
5255.92702,0.06791
5257.96737,0.07300
5260.00771,0.07331
5262.04805,0.07103
5264.08840,0.07037
5266.12874,0.06894
5268.16909,0.06893
5270.20943,0.06924
5272.24978,0.06648
5274.29012,0.06401
5276.33046,0.06584
5278.37081,0.06653
5280.41115,0.06215
5282.45150,0.06168
5284.49184,0.06873
5286.53219,0.07448
5288.57253,0.07411
5290.61288,0.07024
5292.65322,0.06829
5294.69356,0.07070
5296.73391,0.07242
5298.77425,0.07004
5300.81460,0.06873
5302.85494,0.07173
5304.89529,0.07437
5306.93563,0.07369
5308.97597,0.07239
5311.01632,0.07221
5313.05666,0.07291
5315.09701,0.07219
5317.13735,0.06942
5319.17770,0.06829
5321.21804,0.07159
5323.25838,0.07501
5325.29873,0.07161
5327.33907,0.06468
5329.37942,0.06405
5331.41976,0.06926
5333.46011,0.07323
5335.50045,0.07682
5337.54080,0.07701
5339.58114,0.06853
5341.62148,0.06127
5343.66183,0.06171
5345.70217,0.06580
5347.74252,0.07090
5349.78286,0.07497
5351.82321,0.07615
5353.86355,0.07436
5355.90389,0.07427
5357.94424,0.07635
5359.98458,0.07512
5362.02493,0.07372
5364.06527,0.07405
5366.10562,0.07141
5368.14596,0.07053
5370.18630,0.07426
5372.22665,0.07211
5374.26699,0.06641
5376.30734,0.07007
5378.34768,0.07611
5380.38803,0.07371
5382.42837,0.07010
5384.46871,0.07183
5386.50906,0.06852
5388.54940,0.05849
5390.58975,0.05524
5392.63009,0.06177
5394.67044,0.06966
5396.71078,0.07376
5398.75113,0.07632
5400.79147,0.07405
5402.83181,0.06720
5404.87216,0.06249
5406.91250,0.06241
5408.95285,0.06614
5410.99319,0.07006
5413.03354,0.07048
5415.07388,0.07181
5417.11422,0.07672
5419.15457,0.07941
5421.19491,0.07656
5423.23526,0.07174
5425.27560,0.06957
5427.31595,0.07236
5429.35629,0.07716
5431.39663,0.07697
5433.43698,0.07263
5435.47732,0.07126
5437.51767,0.07246
5439.55801,0.07293
5441.59836,0.07691
5443.63870,0.08298
5445.67905,0.08376
5447.71939,0.08047
5449.75973,0.07468
5451.80008,0.06823
5453.84042,0.06875
5455.88077,0.07575
5457.92111,0.08310
5459.96146,0.08579
5462.00180,0.07801
5464.04214,0.06510
5466.08249,0.05987
5468.12283,0.06479
5470.16318,0.07140
5472.20352,0.07424
5474.24387,0.07506
5476.28421,0.07635
5478.32455,0.07525
5480.36490,0.07083
5482.40524,0.06860
5484.44559,0.07140
5486.48593,0.07577
5488.52628,0.07368
5490.56662,0.06921
5492.60697,0.07258
5494.64731,0.07839
5496.68765,0.08032
5498.72800,0.08142
5500.76834,0.08171
5502.80869,0.07877
5504.84903,0.07423
5506.88938,0.06955
5508.92972,0.06664
5510.97006,0.07028
5513.01041,0.07626
5515.05075,0.07509
5517.09110,0.07152
5519.13144,0.07308
5521.17179,0.07331
5523.21213,0.07135
5525.25247,0.07395
5527.29282,0.07691
5529.33316,0.07467
5531.37351,0.06853
5533.41385,0.06906
5535.45420,0.07758
5537.49454,0.07866
5539.53488,0.07183
5541.57523,0.06941
5543.61557,0.07008
5545.65592,0.06841
5547.69626,0.06380
5549.73661,0.06019
5551.77695,0.06261
5553.81730,0.06429
5555.85764,0.06067
5557.89798,0.06393
5559.93833,0.07606
5561.97867,0.08091
5564.01902,0.07812
5566.05936,0.07913
5568.09971,0.08205
5570.14005,0.08019
5572.18039,0.07268
5574.22074,0.06659
5576.26108,0.06613
5578.30143,0.06918
5580.34177,0.07164
5582.38212,0.07242
5584.42246,0.07315
5586.46280,0.07053
5588.50315,0.06397
5590.54349,0.05990
5592.58384,0.06230
5594.62418,0.06859
5596.66453,0.07341
5598.70487,0.07635
5600.74522,0.07539
5602.78556,0.07393
5604.82590,0.07779
5606.86625,0.08292
5608.90659,0.07927
5610.94694,0.07123
5612.98728,0.06754
5615.02763,0.06801
5617.06797,0.07185
5619.10831,0.07501
5621.14866,0.07441
5623.18900,0.07250
5625.22935,0.06885
5627.26969,0.06266
5629.31004,0.06067
5631.35038,0.06633
5633.39072,0.07214
5635.43107,0.06895
5637.47141,0.06001
5639.51176,0.05665
5641.55210,0.06281
5643.59245,0.06889
5645.63279,0.06701
5647.67313,0.06507
5649.71348,0.06604
5651.75382,0.06673
5653.79417,0.06803
5655.83451,0.06706
5657.87486,0.06968
5659.91520,0.08088
5661.95555,0.08772
5663.99589,0.08292
5666.03623,0.07390
5668.07658,0.06763
5670.11692,0.06489
5672.15727,0.06159
5674.19761,0.05935
5676.23796,0.06172
5678.27830,0.06583
5680.31864,0.06961
5682.35899,0.07096
5684.39933,0.06934
5686.43968,0.06262
5688.48002,0.05455
5690.52037,0.05972
5692.56071,0.07273
5694.60105,0.07829
5696.64140,0.08095
5698.68174,0.08329
5700.72209,0.08163
5702.76243,0.07577
5704.80278,0.06834
5706.84312,0.06798
5708.88347,0.07276
5710.92381,0.07255
5712.96415,0.07051
5715.00450,0.07276
5717.04484,0.07699
5719.08519,0.07489
5721.12553,0.07035
5723.16588,0.07466
5725.20622,0.07757
5727.24656,0.07522
5729.28691,0.07384
5731.32725,0.07279
5733.36760,0.07400
5735.40794,0.07691
5737.44829,0.07585
5739.48863,0.06912
5741.52897,0.05870
5743.56932,0.05399
5745.60966,0.05974
5747.65001,0.06437
5749.69035,0.06533
5751.73070,0.06518
5753.77104,0.06415
5755.81138,0.06658
5757.85173,0.07220
5759.89207,0.07363
5761.93242,0.06894
5763.97276,0.06137
5766.01311,0.05440
5768.05345,0.05439
5770.09380,0.05887
5772.13414,0.06582
5774.17448,0.07126
5776.21483,0.07330
5778.25517,0.07995
5780.29552,0.08590
5782.33586,0.08207
5784.37621,0.07706
5786.41655,0.07982
5788.45689,0.08388
5790.49724,0.08460
5792.53758,0.08384
5794.57793,0.08234
5796.61827,0.07828
5798.65862,0.07034
5800.69896,0.06496
5802.73930,0.06412
5804.77965,0.06478
5806.81999,0.06398
5808.86034,0.06045
5810.90068,0.05844
5812.94103,0.06174
5814.98137,0.06758
5817.02172,0.07156
5819.06206,0.07252
5821.10240,0.07391
5823.14275,0.07639
5825.18309,0.07752
5827.22344,0.07616
5829.26378,0.07368
5831.30413,0.07672
5833.34447,0.07961
5835.38481,0.06881
5837.42516,0.05916
5839.46550,0.06613
5841.50585,0.07349
5843.54619,0.07120
5845.58654,0.07081
5847.62688,0.07302
5849.66722,0.07083
5851.70757,0.07061
5853.74791,0.07244
5855.78826,0.06836
5857.82860,0.06366
5859.86895,0.06368
5861.90929,0.06197
5863.94964,0.06226
5865.98998,0.07026
5868.03032,0.07382
5870.07067,0.07066
5872.11101,0.07133
5874.15136,0.07346
5876.19170,0.07295
5878.23205,0.07355
5880.27239,0.07628
5882.31273,0.07919
5884.35308,0.08300
5886.39342,0.08478
5888.43377,0.07868
5890.47411,0.07176
5892.51446,0.07039
5894.55480,0.07400
5896.59514,0.07893
5898.63549,0.08041
5900.67583,0.07827
5902.71618,0.07690
5904.75652,0.07840
5906.79687,0.07938
5908.83721,0.07961
5910.87755,0.08113
5912.91790,0.08046
5914.95824,0.07565
5916.99859,0.06826
5919.03893,0.06445
5921.07928,0.07088
5923.11962,0.07864
5925.15997,0.07602
5927.20031,0.07158
5929.24065,0.07229
5931.28100,0.07185
5933.32134,0.07226
5935.36169,0.07806
5937.40203,0.08179
5939.44238,0.07846
5941.48272,0.06996
5943.52306,0.06605
5945.56341,0.07238
5947.60375,0.07935
5949.64410,0.08056
5951.68444,0.07335
5953.72479,0.06517
5955.76513,0.06639
5957.80547,0.07487
5959.84582,0.07954
5961.88616,0.07504
5963.92651,0.07325
5965.96685,0.08111
5968.00720,0.08847
5970.04754,0.08351
5972.08789,0.07323
5974.12823,0.06668
5976.16857,0.06912
5978.20892,0.07669
5980.24926,0.07902
5982.28961,0.08057
5984.32995,0.08940
5986.37030,0.09489
5988.41064,0.09019
5990.45098,0.08450
5992.49133,0.08105
5994.53167,0.07292
5996.57202,0.06445
5998.61236,0.06617
6000.65271,0.07477
6002.69305,0.07578
6004.73339,0.06866
6006.77374,0.06494
6008.81408,0.06876
6010.85443,0.07335
6012.89477,0.07563
6014.93512,0.07891
6016.97546,0.08372
6019.01580,0.08857
6021.05615,0.08627
6023.09649,0.07341
6025.13684,0.06655
6027.17718,0.07155
6029.21753,0.07726
6031.25787,0.07709
6033.29822,0.07136
6035.33856,0.06836
6037.37890,0.07051
6039.41925,0.07079
6041.45959,0.06701
6043.49994,0.06201
6045.54028,0.06192
6047.58063,0.07032
6049.62097,0.07757
6051.66131,0.07609
6053.70166,0.07329
6055.74200,0.07559
6057.78235,0.07181
6059.82269,0.05847
6061.86304,0.05496
6063.90338,0.06534
6065.94372,0.07184
6067.98407,0.06994
6070.02441,0.06854
6072.06476,0.06880
6074.10510,0.07158
6076.14545,0.07488
6078.18579,0.07222
6080.22614,0.06833
6082.26648,0.06918
6084.30682,0.06855
6086.34717,0.06850
6088.38751,0.07341
6090.42786,0.07499
6092.46820,0.07194
6094.50855,0.07416
6096.54889,0.08316
6098.58923,0.08505
6100.62958,0.07670
6102.66992,0.07096
6104.71027,0.07014
6106.75061,0.06991
6108.79096,0.06965
6110.83130,0.06620
6112.87164,0.06560
6114.91199,0.07726
6116.95233,0.08454
6118.99268,0.07892
6121.03302,0.07467
6123.07337,0.07535
6125.11371,0.07471
6127.15405,0.06859
6129.19440,0.06554
6131.23474,0.07076
6133.27509,0.07533
6135.31543,0.07670
6137.35578,0.07825
6139.39612,0.08135
6141.43647,0.08259
6143.47681,0.08354
6145.51715,0.07815
6147.55750,0.06632
6149.59784,0.06447
6151.63819,0.07152
6153.67853,0.07123
6155.71888,0.06826
6157.75922,0.06655
6159.79956,0.06656
6161.83991,0.07321
6163.88025,0.07662
6165.92060,0.07249
6167.96094,0.07008
6170.00129,0.06497
6172.04163,0.05285
6174.08197,0.04987
6176.12232,0.05947
6178.16266,0.07275
6180.20301,0.08329
6182.24335,0.08620
6184.28370,0.08272
6186.32404,0.08360
6188.36439,0.09140
6190.40473,0.09967
6192.44507,0.10425
6194.48542,0.10215
6196.52576,0.09085
6198.56611,0.07801
6200.60645,0.07236
6202.64680,0.06854
6204.68714,0.06757
6206.72748,0.07747
6208.76783,0.08652
6210.80817,0.08635
6212.84852,0.07955
6214.88886,0.07222
6216.92921,0.07249
6218.96955,0.07604
6221.00989,0.07902
6223.05024,0.08601
6225.09058,0.09123
6227.13093,0.08492
6229.17127,0.07488
6231.21162,0.06966
6233.25196,0.06917
6235.29231,0.06990
6237.33265,0.06846
6239.37299,0.06689
6241.41334,0.07211
6243.45368,0.07653
6245.49403,0.07046
6247.53437,0.06854
6249.57472,0.07941
6251.61506,0.08488
6253.65540,0.07709
6255.69575,0.06715
6257.73609,0.06727
6259.77644,0.07108
6261.81678,0.06276
6263.85713,0.05308
6265.89747,0.05750
6267.93781,0.06363
6269.97816,0.06366
6272.01850,0.06509
6274.05885,0.07046
6276.09919,0.07555
6278.13954,0.07590
6280.17988,0.07523
6282.22022,0.08096
6284.26057,0.08426
6286.30091,0.07964
6288.34126,0.07005
6290.38160,0.06193
6292.42195,0.05842
6294.46229,0.05947
6296.50264,0.06737
6298.54298,0.07699
6300.58332,0.07847
6302.62367,0.07122
6304.66401,0.06852
6306.70436,0.07754
6308.74470,0.08328
6310.78505,0.07586
6312.82539,0.07046
6314.86573,0.07734
6316.90608,0.07824
6318.94642,0.06519
6320.98677,0.05701
6323.02711,0.06577
6325.06746,0.07935
6327.10780,0.08417
6329.14814,0.08640
6331.18849,0.08526
6333.22883,0.07624
6335.26918,0.07065
6337.30952,0.07278
6339.34987,0.07528
6341.39021,0.07381
6343.43056,0.06890
6345.47090,0.06495
6347.51124,0.06647
6349.55159,0.07517
6351.59193,0.08129
6353.63228,0.08226
6355.67262,0.08429
6357.71297,0.08106
6359.75331,0.07562
6361.79365,0.08134
6363.83400,0.08767
6365.87434,0.08444
6367.91469,0.08133
6369.95503,0.07838
6371.99538,0.07244
6374.03572,0.06034
6376.07606,0.05193
6378.11641,0.05906
6380.15675,0.06879
6382.19710,0.07022
6384.23744,0.06698
6386.27779,0.06870
6388.31813,0.07949
6390.35847,0.08398
6392.39882,0.07499
6394.43916,0.06485
6396.47951,0.06499
6398.51985,0.07844
6400.56020,0.09580
6402.60054,0.10507
6404.64089,0.10530
6406.68123,0.09334
6408.72157,0.07425
6410.76192,0.06425
6412.80226,0.06482
6414.84261,0.06956
6416.88295,0.07008
6418.92330,0.06487
6420.96364,0.05969
6423.00398,0.06155
6425.04433,0.06917
6427.08467,0.06665
6429.12502,0.05995
6431.16536,0.06871
6433.20571,0.08294
6435.24605,0.08585
6437.28639,0.07901
6439.32674,0.06833
6441.36708,0.05688
6443.40743,0.05403
6445.44777,0.05921
6447.48812,0.06532
6449.52846,0.06991
6451.56881,0.07025
6453.60915,0.07680
6455.64949,0.08789
6457.68984,0.08803
6459.73018,0.08130
6461.77053,0.08193
6463.81087,0.08127
6465.85122,0.08367
6467.89156,0.09001
6469.93190,0.09384
6471.97225,0.09498
6474.01259,0.08824
6476.05294,0.07579
6478.09328,0.06892
6480.13363,0.07166
6482.17397,0.07501
6484.21431,0.07631
6486.25466,0.07718
6488.29500,0.07558
6490.33535,0.07271
6492.37569,0.07410
6494.41604,0.07758
6496.45638,0.08133
6498.49672,0.08269
6500.53707,0.08330
6502.57741,0.08365
6504.61776,0.08459
6506.65810,0.08534
6508.69845,0.08422
6510.73879,0.07778
6512.77914,0.07124
6514.81948,0.07611
6516.85982,0.08307
6518.90017,0.07777
6520.94051,0.06935
6522.98086,0.06840
6525.02120,0.06751
6527.06155,0.06450
6529.10189,0.06776
6531.14223,0.07631
6533.18258,0.08353
6535.22292,0.08553
6537.26327,0.08114
6539.30361,0.07878
6541.34396,0.08545
6543.38430,0.08652
6545.42464,0.07280
6547.46499,0.07070
6549.50533,0.07781
6551.54568,0.07182
6553.58602,0.06581
6555.62637,0.07734
6557.66671,0.08848
6559.70706,0.08234
6561.74740,0.06474
6563.78774,0.05387
6565.82809,0.05795
6567.86843,0.06959
6569.90878,0.08217
6571.94912,0.09143
6573.98947,0.09134
6576.02981,0.08356
6578.07015,0.07544
6580.11050,0.06996
6582.15084,0.07135
6584.19119,0.06760
6586.23153,0.06379
6588.27188,0.07195
6590.31222,0.08891
6592.35256,0.10058
6594.39291,0.09711
6596.43325,0.09270
6598.47360,0.09828
6600.51394,0.09594
6602.55429,0.08341
6604.59463,0.08057
6606.63498,0.08525
6608.67532,0.07647
6610.71566,0.06071
6612.75601,0.06062
6614.79635,0.07305
6616.83670,0.08887
6618.87704,0.10058
6620.91739,0.09553
6622.95773,0.07657
6624.99807,0.06681
6627.03842,0.07881
6629.07876,0.09460
6631.11911,0.10215
6633.15945,0.10971
6635.19980,0.10920
6637.24014,0.09287
6639.28048,0.08255
6641.32083,0.08202
6643.36117,0.07524
6645.40152,0.06398
6647.44186,0.05874
6649.48221,0.06362
6651.52255,0.07278
6653.56289,0.08750
6655.60324,0.09213
6657.64358,0.08602
6659.68393,0.07780
6661.72427,0.08338
6663.76462,0.08683
6665.80496,0.08764
6667.84531,0.09128
6669.88565,0.08594
6671.92599,0.07716
6673.96634,0.06977
6676.00668,0.06573
6678.04703,0.07596
6680.08737,0.08820
6682.12772,0.08782
6684.16806,0.08219
6686.20840,0.08394
6688.24875,0.09361
6690.28909,0.09436
6692.32944,0.08356
6694.36978,0.07977
6696.41013,0.08285
6698.45047,0.07537
6700.49081,0.05741
6702.53116,0.04435
6704.57150,0.03839
6706.61185,0.04188
6708.65219,0.05805
6710.69254,0.08334
6712.73288,0.09949
6714.77323,0.09803
6716.81357,0.09066
6718.85391,0.08143
6720.89426,0.07038
6722.93460,0.07160
6724.97495,0.07735
6727.01529,0.07617
6729.05564,0.06552
6731.09598,0.05719
6733.13632,0.06085
6735.17667,0.07618
6737.21701,0.09194
6739.25736,0.09499
6741.29770,0.08692
6743.33805,0.07704
6745.37839,0.07103
6747.41873,0.06862
6749.45908,0.06616
6751.49942,0.06270
6753.53977,0.06470
6755.58011,0.06592
6757.62046,0.06968
6759.66080,0.08808
6761.70114,0.09340
6763.74149,0.07232
6765.78183,0.05788
6767.82218,0.06058
6769.86252,0.06984
6771.90287,0.08289
6773.94321,0.09073
6775.98356,0.09041
6778.02390,0.08966
6780.06424,0.08012
6782.10459,0.06472
6784.14493,0.05750
6786.18528,0.06474
6788.22562,0.07949
6790.26597,0.09212
6792.30631,0.09270
6794.34665,0.07994
6796.38700,0.06997
6798.42734,0.07210
6800.46769,0.07220
6802.50803,0.06716
6804.54838,0.06368
6806.58872,0.06774
6808.62906,0.08080
6810.66941,0.08486
6812.70975,0.07583
6814.75010,0.06330
6816.79044,0.06058
6818.83079,0.07345
6820.87113,0.08733
6822.91148,0.08358
6824.95182,0.07713
6826.99216,0.07350
6829.03251,0.05949
6831.07285,0.05171
6833.11320,0.07409
6835.15354,0.10585
6837.19389,0.11184
6839.23423,0.09983
6841.27457,0.10304
6843.31492,0.11075
6845.35526,0.09222
6847.39561,0.06595
6849.43595,0.05669
6851.47630,0.06182
6853.51664,0.06912
6855.55698,0.07609
6857.59733,0.08319
6859.63767,0.08630
6861.67802,0.08854
6863.71836,0.08183
6865.75871,0.07031
6867.79905,0.06882
6869.83939,0.07382
6871.87974,0.08513
6873.92008,0.10348
6875.96043,0.11176
6878.00077,0.11707
6880.04112,0.12312
6882.08146,0.11433
6884.12181,0.10073
6886.16215,0.10660
6888.20249,0.12044
6890.24284,0.11724
6892.28318,0.09678
6894.32353,0.07583
6896.36387,0.06045
6898.40422,0.06344
6900.44456,0.08403
6902.48490,0.09513
6904.52525,0.09894
6906.56559,0.10548
6908.60594,0.09376
6910.64628,0.06940
6912.68663,0.05973
6914.72697,0.07077
6916.76731,0.08368
6918.80766,0.08703
6920.84800,0.09257
6922.88835,0.10094
6924.92869,0.09570
6926.96904,0.08102
6929.00938,0.06956
6931.04973,0.07132
6933.09007,0.08301
6935.13041,0.09019
6937.17076,0.08735
6939.21110,0.09007
6941.25145,0.09416
6943.29179,0.08654
6945.33214,0.07993
6947.37248,0.07944
6949.41282,0.07939
6951.45317,0.09145
6953.49351,0.10778
6955.53386,0.10517
6957.57420,0.09347
6959.61455,0.08337
6961.65489,0.06723
6963.69523,0.06415
6965.73558,0.07908
6967.77592,0.08346
6969.81627,0.06415
6971.85661,0.04282
6973.89696,0.05134
6975.93730,0.07935
6977.97765,0.09938
6980.01799,0.10337
6982.05833,0.09560
6984.09868,0.08829
6986.13902,0.07816
6988.17937,0.07005
6990.21971,0.07036
6992.26006,0.07317
6994.30040,0.07459
6996.34074,0.07896
6998.38109,0.08892
7000.42143,0.08754
7002.46178,0.06940
7004.50212,0.06564
7006.54247,0.08736
7008.58281,0.09990
7010.62315,0.09966
7012.66350,0.10989
7014.70384,0.11326
7016.74419,0.10229
7018.78453,0.09371
7020.82488,0.08762
7022.86522,0.08022
7024.90556,0.06858
7026.94591,0.06612
7028.98625,0.08837
7031.02660,0.11410
7033.06694,0.11370
7035.10729,0.09211
7037.14763,0.07651
7039.18798,0.07398
7041.22832,0.08928
7043.26866,0.10482
7045.30901,0.11215
7047.34935,0.10407
7049.38970,0.08415
7051.43004,0.07621
7053.47039,0.07411
7055.51073,0.06271
7057.55107,0.06456
7059.59142,0.08437
7061.63176,0.09612
7063.67211,0.09833
7065.71245,0.08891
7067.75280,0.05989
7069.79314,0.04075
7071.83348,0.05478
7073.87383,0.07885
7075.91417,0.08506
7077.95452,0.08463
7079.99486,0.07703
7082.03521,0.06136
7084.07555,0.05622
7086.11590,0.06576
7088.15624,0.09596
7090.19658,0.10801
7092.23693,0.09235
7094.27727,0.07044
7096.31762,0.05946
7098.35796,0.06765
7100.39831,0.07089
7102.43865,0.07270
7104.47899,0.09184
7106.51934,0.10035
7108.55968,0.07790
7110.60003,0.05674
7112.64037,0.04922
7114.68072,0.04365
7116.72106,0.04521
7118.76140,0.06248
7120.80175,0.07701
7122.84209,0.08235
7124.88244,0.08457
7126.92278,0.07840
7128.96313,0.06727
7131.00347,0.06150
7133.04381,0.07028
7135.08416,0.09110
7137.12450,0.10038
7139.16485,0.08769
7141.20519,0.07513
7143.24554,0.08368
7145.28588,0.09852
7147.32623,0.09643
7149.36657,0.09000
7151.40691,0.08404
7153.44726,0.07915
7155.48760,0.08017
7157.52795,0.09262
7159.56829,0.08991
7161.60864,0.08277
7163.64898,0.09108
7165.68932,0.09870
7167.72967,0.07808
7169.77001,0.04703
7171.81036,0.05827
7173.85070,0.07582
7175.89105,0.07726
7177.93139,0.07348
7179.97173,0.07323
7182.01208,0.06262
7184.05242,0.04637
7186.09277,0.06491
7188.13311,0.07934
7190.17346,0.07143
7192.21380,0.06996
7194.25415,0.06473
7196.29449,0.05330
7198.33483,0.04402
7200.37518,0.05058
7202.41552,0.07915
7204.45587,0.09474
7206.49621,0.11300
7208.53656,0.11113
7210.57690,0.10258
7212.61724,0.09196
7214.65759,0.06346
7216.69793,0.05884
7218.73828,0.07320
7220.77862,0.09691
7222.81897,0.09451
7224.85931,0.08505
7226.89965,0.07233
7228.94000,0.04470
7230.98034,0.04064
7233.02069,0.06243
7235.06103,0.07166
7237.10138,0.07069
7239.14172,0.07649
7241.18206,0.08514
7243.22241,0.09298
7245.26275,0.08797
7247.30310,0.07469
7249.34344,0.05659
7251.38379,0.05731
7253.42413,0.06125
7255.46448,0.08851
7257.50482,0.11841
7259.54516,0.11671
7261.58551,0.08739
7263.62585,0.07821
7265.66620,0.06578
7267.70654,0.07084
7269.74689,0.08626
7271.78723,0.09986
7273.82757,0.13517
7275.86792,0.15078
7277.90826,0.12683
7279.94861,0.11408
7281.98895,0.12215
7284.02930,0.12108
7286.06964,0.11871
7288.10998,0.12192
7290.15033,0.13122
7292.19067,0.14642
7294.23102,0.16837
7296.27136,0.16809
7298.31171,0.14371
7300.35205,0.10705
7302.39240,0.07954
7304.43274,0.05854
7306.47308,0.03316
7308.51343,0.04491
7310.55377,0.07013
7312.59412,0.10574
7314.63446,0.10338
7316.67481,0.09498
7318.71515,0.09789
7320.75549,0.09187
7322.79584,0.11606
7324.83618,0.10966
7326.87653,0.09454
7328.91687,0.09636
7330.95722,0.08725
7332.99756,0.08165
7335.03790,0.09954
7337.07825,0.09928
7339.11859,0.06775
7341.15894,0.06876
7343.19928,0.09267
7345.23963,0.09913
7347.27997,0.07364
7349.32032,0.06506
7351.36066,0.07336
7353.40100,0.08714
7355.44135,0.07202
7357.48169,0.05174
7359.52204,0.05798
7361.56238,0.09049
7363.60273,0.09850
7365.64307,0.11004
7367.68341,0.11815
7369.72376,0.10136
7371.76410,0.09024
7373.80445,0.12445
7375.84479,0.11787
7377.88514,0.09729
7379.92548,0.11594
7381.96582,0.11875
7384.00617,0.14230
7386.04651,0.13590
7388.08686,0.08315
7390.12720,0.01798
7392.16755,0.01739
7394.20789,0.03779
7396.24823,0.09279
7398.28858,0.11271
7400.32892,0.10773
7402.36927,0.09148
7404.40961,0.07762
7406.44996,0.08876
7408.49030,0.11316
7410.53065,0.12307
7412.57099,0.11775
7414.61133,0.11521
7416.65168,0.12433
7418.69202,0.14307
7420.73237,0.14258
7422.77271,0.14511
7424.81306,0.13878
7426.85340,0.08786
7428.89374,0.07407
7430.93409,0.09535
7432.97443,0.08920
7435.01478,0.04587
7437.05512,0.07267
7439.09547,0.11693
7441.13581,0.11488
7443.17615,0.11154
7445.21650,0.10529
7447.25684,0.08595
7449.29719,0.05318
7451.33753,0.05497
7453.37788,0.01124
7455.41822,0.07464
7457.45857,0.08195
7459.49891,0.07165
7461.53925,0.06111
7463.57960,0.08833
7465.61994,0.12450
7467.66029,0.09248
7469.70063,0.02673
7471.74098,0.03687
7473.78132,0.07243
7475.82166,0.07987
7477.86201,0.05564
7479.90235,0.07152
7481.94270,0.14408
7483.98304,0.16787
7486.02339,0.14031
7488.06373,0.09571
7490.10407,0.07328
7492.14442,0.06403
7494.18476,0.01893
7496.22511,0.02907
7498.26545,0.03801
7500.30580,0.07055
7502.34614,0.09122
7504.38648,0.11053
7506.42683,0.11534
7508.46717,0.08920
7510.50752,0.06171
7512.54786,0.08330
7514.58821,0.15824
7516.62855,0.24770
7518.66890,0.25055
7520.70924,0.17541
7522.74958,0.14214
7524.78993,0.14235
7526.83027,0.11248
7528.87062,0.10504
7530.91096,0.10769
7532.95131,0.09964
7534.99165,0.10565
7537.03199,0.09413
7539.07234,0.08337
7541.11268,0.09037
7543.15303,0.11642
7545.19337,0.18566
7547.23372,0.25340
7549.27406,0.24141
7551.31440,0.15341
7553.35475,0.07381
7555.39509,0.07686
7557.43544,0.12059
7559.47578,0.13970
7561.51613,0.13611
7563.55647,0.16626
7565.59682,0.19111
7567.63716,0.16747
7569.67750,0.11717
7571.71785,0.09568
7573.75819,0.12258
7575.79854,0.13443
7577.83888,0.08085
7579.87923,0.02067
7581.91957,0.04910
7583.95991,0.12585
7586.00026,0.14112
7588.04060,0.13993
7590.08095,0.15625
7592.12129,0.11104
7594.16164,0.08224
7596.20198,0.12843
7598.24232,0.15733
7600.28267,0.13846
7602.32301,0.09691
7604.36336,0.06217
7606.40370,0.05339
7608.44405,0.05628
7610.48439,0.04061
7612.52473,0.08067
7614.56508,0.10370
7616.60542,0.13844
7618.64577,0.17623
7620.68611,0.15805
7622.72646,0.08992
7624.76680,0.08694
7626.80715,0.14524
7628.84749,0.10414
7630.88783,0.01558
7632.92818,0.04992
7634.96852,0.12328
7637.00887,0.27282
7639.04921,0.21509
7641.08956,0.03139
7643.12990,0.07100
7645.17024,0.07623
7647.21059,0.16940
7649.25093,0.21292
7651.29128,0.14724
7653.33162,0.08862
7655.37197,0.08567
7657.41231,0.09834
7659.45265,0.07598
7661.49300,0.01581
7663.53334,0.12519
7665.57369,0.18837
7667.61403,0.21194
7669.65438,0.19250
7671.69472,0.12385
7673.73507,0.08113
7675.77541,0.09468
7677.81575,0.11125
7679.85610,0.10550
7681.89644,0.07915
7683.93679,0.07646
7685.97713,0.06501
7688.01748,0.05404
7690.05782,0.09807
7692.09816,0.12372
7694.13851,0.12492
7696.17885,0.11624
7698.21920,0.12662
7700.25954,0.17690
7702.29989,0.16461
7704.34023,0.07317
7706.38057,0.09619
7708.42092,0.07846
7710.46126,0.08447
7712.50161,0.14741
7714.54195,0.14419
7716.58230,0.06111
7718.62264,0.02591
7720.66298,0.08076
7722.70333,0.19400
7724.74367,0.18507
7726.78402,0.10505
7728.82436,0.08146
7730.86471,0.14474
7732.90505,0.20510
7734.94540,0.22288
7736.98574,0.19603
7739.02608,0.13403
7741.06643,0.15548
7743.10677,0.17900
7745.14712,0.12717
7747.18746,0.12009
7749.22781,0.17377
7751.26815,0.24968
7753.30849,0.32927
7755.34884,0.27543
7757.38918,0.10216
7759.42953,0.11504
7761.46987,0.24998
7763.51022,0.26397
7765.55056,0.09940
7767.59090,0.11834
7769.63125,0.14364
7771.67159,0.15346
7773.71194,0.25259
7775.75228,0.31332
7777.79263,0.22940
7779.83297,0.18059
7781.87332,0.17689
7783.91366,0.12535
7785.95400,0.07664
7787.99435,0.16424
7790.03469,0.20667
7792.07504,0.17245
7794.11538,0.17229
7796.15573,0.19520
7798.19607,0.14642
7800.23641,0.12465
7802.27676,0.08744
7804.31710,0.06555
7806.35745,0.07318
7808.39779,0.12307
7810.43814,0.11991
7812.47848,0.14148
7814.51882,0.14797
7816.55917,0.20540
7818.59951,0.27314
7820.63986,0.29715
7822.68020,0.27672
7824.72055,0.18072
7826.76089,0.18846
7828.80124,0.20979
7830.84158,0.06785
7832.88192,0.17457
7834.92227,0.16573
7836.96261,0.11655
7839.00296,0.13289
7841.04330,0.14367
7843.08365,0.25294
7845.12399,0.28324
7847.16433,0.30949
7849.20468,0.27072
7851.24502,0.12523
7853.28537,0.04969
7855.32571,0.17329
7857.36606,0.29621
7859.40640,0.28548
7861.44674,0.14294
7863.48709,0.05977
7865.52743,0.06965
7867.56778,0.20797
7869.60812,0.27860
7871.64847,0.28590
7873.68881,0.23316
7875.72915,0.22967
7877.76950,0.31999
7879.80984,0.39197
7881.85019,0.45337
7883.89053,0.43665
7885.93088,0.34888
7887.97122,0.24831
7890.01157,0.20381
7892.05191,0.19773
7894.09225,0.19584
7896.13260,0.11142
7898.17294,0.09218
7900.21329,0.04616
7902.25363,0.12446
7904.29398,0.20005
7906.33432,0.23588
7908.37466,0.27926
7910.41501,0.29630
7912.45535,0.27589
7914.49570,0.16498
7916.53604,0.18238
7918.57639,0.20056
7920.61673,0.10370
7922.65707,0.06836
7924.69742,0.08248
7926.73776,0.02879
7928.77811,0.03298
7930.81845,0.01682
7932.85880,0.10255
7934.89914,0.25006
7936.93949,0.38303
7938.97983,0.37322
7941.02017,0.22775
7943.06052,0.06380
7945.10086,0.12606
7947.14121,0.25256
7949.18155,0.27585
7951.22190,0.18746
7953.26224,0.10246
7955.30258,0.11643
7957.34293,0.15910
7959.38327,0.32550
7961.42362,0.47380
7963.46396,0.37378
7965.50431,0.18289
7967.54465,0.10293
7969.58499,0.16632
7971.62534,0.11995
7973.66568,0.03198
7975.70603,0.07442
7977.74637,0.18994
7979.78672,0.47578
7981.82706,0.60321
7983.86740,0.50999
7985.90775,0.38047
7987.94809,0.27401
7989.98844,0.25331
7992.02878,0.15844
7994.06913,0.19826
7996.10947,0.35489
