499.88436,0.08228
501.92471,0.13612
503.96505,0.28770
506.00540,0.39344
508.04574,0.39743
510.08609,0.27077
512.12643,0.12435
514.16677,0.23823
516.20712,0.40715
518.24746,0.45810
520.28781,0.59432
522.32815,0.79002
524.36850,0.91839
526.40884,1.08712
528.44918,1.26411
530.48953,1.28922
532.52987,1.23347
534.57022,1.18433
536.61056,1.09146
538.65091,0.99502
540.69125,1.01015
542.73159,1.06559
544.77194,1.03776
546.81228,0.96427
548.85263,0.91351
550.89297,0.86837
552.93332,0.79908
554.97366,0.73868
557.01400,0.70166
559.05435,0.65941
561.09469,0.60697
563.13504,0.55332
565.17538,0.49394
567.21573,0.43445
569.25607,0.36926
571.29642,0.30037
573.33676,0.24941
575.37710,0.21895
577.41745,0.20006
579.45779,0.19024
581.49814,0.18632
583.53848,0.18361
585.57883,0.18399
587.61917,0.19601
589.65951,0.22129
591.69986,0.25396
593.74020,0.28943
595.78055,0.32282
597.82089,0.35580
599.86124,0.39179
601.90158,0.42322
603.94192,0.44619
605.98227,0.46269
608.02261,0.47600
610.06296,0.48966
612.10330,0.50278
614.14365,0.51278
616.18399,0.51835
618.22434,0.51964
620.26468,0.51777
622.30502,0.51288
624.34537,0.50381
626.38571,0.49257
628.42606,0.48015
630.46640,0.46184
632.50675,0.43675
634.54709,0.41004
636.58743,0.38188
638.62778,0.34891
640.66812,0.31044
642.70847,0.26881
644.74881,0.22663
646.78916,0.18596
648.82950,0.14961
650.86984,0.11951
652.91019,0.09540
654.95053,0.07694
656.99088,0.06485
659.03122,0.05799
661.07157,0.05275
663.11191,0.04780
665.15226,0.04442
667.19260,0.04300
669.23294,0.04425
671.27329,0.04531
673.31363,0.04452
675.35398,0.04431
677.39432,0.04622
679.43467,0.04833
681.47501,0.04952
683.51535,0.05076
685.55570,0.05231
687.59604,0.05469
689.63639,0.05753
691.67673,0.05929
693.71708,0.06062
695.75742,0.06312
697.79776,0.06656
699.83811,0.06936
701.87845,0.07115
703.91880,0.07322
705.95914,0.07624
707.99949,0.07956
710.03983,0.08202
712.08017,0.08360
714.12052,0.08551
716.16086,0.08762
718.20121,0.08977
720.24155,0.09217
722.28190,0.09420
724.32224,0.09668
726.36259,0.10031
728.40293,0.10404
730.44327,0.10697
732.48362,0.10890
734.52396,0.11083
736.56431,0.11369
738.60465,0.11651
740.64500,0.11869
742.68534,0.12066
744.72568,0.12269
746.76603,0.12518
748.80637,0.12823
750.84672,0.13139
752.88706,0.13414
754.92741,0.13671
756.96775,0.13955
759.00809,0.14273
761.04844,0.14586
763.08878,0.14838
765.12913,0.15068
767.16947,0.15359
769.20982,0.15652
771.25016,0.15921
773.29051,0.16261
775.33085,0.16641
777.37119,0.16986
779.41154,0.17327
781.45188,0.17690
783.49223,0.18060
785.53257,0.18451
787.57292,0.18845
789.61326,0.19214
791.65360,0.19606
793.69395,0.20026
795.73429,0.20416
797.77464,0.20786
799.81498,0.21202
801.85533,0.21696
803.89567,0.22222
805.93601,0.22750
807.97636,0.23310
810.01670,0.23899
812.05705,0.24484
814.09739,0.25084
816.13774,0.25762
818.17808,0.26533
820.21842,0.27332
822.25877,0.28125
824.29911,0.28963
826.33946,0.29891
828.37980,0.30916
830.42015,0.32030
832.46049,0.33221
834.50084,0.34468
836.54118,0.35639
838.58152,0.36422
840.62187,0.36537
842.66221,0.36113
844.70256,0.35742
846.74290,0.35941
848.78325,0.36809
850.82359,0.38202
852.86393,0.39880
854.90428,0.41680
856.94462,0.43589
858.98497,0.45686
861.02531,0.48142
863.06566,0.51130
865.10600,0.54767
867.14634,0.59061
869.18669,0.63794
871.22703,0.68526
873.26738,0.72659
875.30772,0.75706
877.34807,0.77714
879.38841,0.79233
881.42876,0.80823
883.46910,0.82807
885.50944,0.85226
887.54979,0.87835
889.59013,0.90302
891.63048,0.92400
893.67082,0.94047
895.71117,0.95310
897.75151,0.96331
899.79185,0.97196
901.83220,0.97936
903.87254,0.98579
905.91289,0.99176
907.95323,0.99784
909.99358,1.00420
912.03392,1.01029
914.07426,1.01600
916.11461,1.02208
918.15495,1.02883
920.19530,1.03590
922.23564,1.04308
924.27599,1.05050
926.31633,1.05795
928.35667,1.06500
930.39702,1.07184
932.43736,1.07914
934.47771,1.08733
936.51805,1.09629
938.55840,1.10613
940.59874,1.11754
942.63909,1.13131
944.67943,1.14757
946.71977,1.16476
948.76012,1.17656
950.80046,1.16818
952.84081,1.11910
954.88115,1.01049
956.92150,0.84208
958.96184,0.66121
961.00218,0.54380
963.04253,0.52121
965.08287,0.56791
967.12322,0.65244
969.16356,0.75524
971.20391,0.85923
973.24425,0.94951
975.28459,1.01689
977.32494,1.05867
979.36528,1.07702
981.40563,1.07467
983.44597,1.05083
985.48632,1.00224
987.52666,0.93334
989.56701,0.86487
991.60735,0.81987
993.64769,0.80217
995.68804,0.79910
997.72838,0.79898
999.76873,0.79725
1001.80907,0.79322
1003.84942,0.78779
1005.88976,0.78207
1007.93010,0.77678
1009.97045,0.77195
1012.01079,0.76697
1014.05114,0.76174
1016.09148,0.75671
1018.13183,0.75220
1020.17217,0.74809
1022.21251,0.74380
1024.25286,0.73932
1026.29320,0.73513
1028.33355,0.73111
1030.37389,0.72716
1032.41424,0.72314
1034.45458,0.71860
1036.49493,0.71356
1038.53527,0.70829
1040.57561,0.70278
1042.61596,0.69694
1044.65630,0.69029
1046.69665,0.68274
1048.73699,0.67506
1050.77734,0.66723
1052.81768,0.65870
1054.85802,0.64930
1056.89837,0.63919
1058.93871,0.62859
1060.97906,0.61760
1063.01940,0.60613
1065.05975,0.59327
1067.10009,0.57656
1069.14043,0.55281
1071.18078,0.51869
1073.22112,0.47136
1075.26147,0.41142
1077.30181,0.34451
1079.34216,0.27875
1081.38250,0.22068
1083.42284,0.17313
1085.46319,0.13610
1087.50353,0.10813
1089.54388,0.08715
1091.58422,0.07126
1093.62457,0.05906
1095.66491,0.04947
1097.70526,0.04164
1099.74560,0.03505
1101.78594,0.02950
1103.82629,0.02518
1105.86663,0.02196
1107.90698,0.01930
1109.94732,0.01698
1111.98767,0.01503
1114.02801,0.01326
1116.06835,0.01158
1118.10870,0.01019
1120.14904,0.00923
1122.18939,0.00874
1124.22973,0.00856
1126.27008,0.00834
1128.31042,0.00815
1130.35076,0.00812
1132.39111,0.00810
1134.43145,0.00796
1136.47180,0.00779
1138.51214,0.00767
1140.55249,0.00769
1142.59283,0.00805
1144.63318,0.00874
1146.67352,0.00929
1148.71386,0.00948
1150.75421,0.00966
1152.79455,0.00990
1154.83490,0.01008
1156.87524,0.01044
1158.91559,0.01102
1160.95593,0.01166
1162.99627,0.01239
1165.03662,0.01298
1167.07696,0.01333
1169.11731,0.01368
1171.15765,0.01399
1173.19800,0.01424
1175.23834,0.01454
1177.27868,0.01490
1179.31903,0.01541
1181.35937,0.01595
1183.39972,0.01639
1185.44006,0.01700
1187.48041,0.01775
1189.52075,0.01829
1191.56109,0.01875
1193.60144,0.01917
1195.64178,0.01933
1197.68213,0.01946
1199.72247,0.02001
1201.76282,0.02090
1203.80316,0.02174
1205.84351,0.02233
1207.88385,0.02289
1209.92419,0.02340
1211.96454,0.02368
1214.00488,0.02392
1216.04523,0.02431
1218.08557,0.02481
1220.12592,0.02550
1222.16626,0.02623
1224.20660,0.02657
1226.24695,0.02679
1228.28729,0.02743
1230.32764,0.02809
1232.36798,0.02840
1234.40833,0.02866
1236.44867,0.02916
1238.48901,0.02977
1240.52936,0.03023
1242.56970,0.03039
1244.61005,0.03061
1246.65039,0.03126
1248.69074,0.03204
1250.73108,0.03234
1252.77143,0.03226
1254.81177,0.03232
1256.85211,0.03271
1258.89246,0.03333
1260.93280,0.03397
1262.97315,0.03457
1265.01349,0.03500
1267.05384,0.03532
1269.09418,0.03567
1271.13452,0.03602
1273.17487,0.03645
1275.21521,0.03703
1277.25556,0.03762
1279.29590,0.03809
1281.33625,0.03845
1283.37659,0.03873
1285.41693,0.03885
1287.45728,0.03898
1289.49762,0.03940
1291.53797,0.03998
1293.57831,0.04028
1295.61866,0.04020
1297.65900,0.04020
1299.69934,0.04061
1301.73969,0.04129
1303.78003,0.04184
1305.82038,0.04188
1307.86072,0.04197
1309.90107,0.04257
1311.94141,0.04298
1313.98176,0.04310
1316.02210,0.04352
1318.06244,0.04410
1320.10279,0.04441
1322.14313,0.04452
1324.18348,0.04472
1326.22382,0.04512
1328.26417,0.04565
1330.30451,0.04616
1332.34485,0.04651
1334.38520,0.04663
1336.42554,0.04674
1338.46589,0.04708
1340.50623,0.04753
1342.54658,0.04793
1344.58692,0.04827
1346.62726,0.04850
1348.66761,0.04861
1350.70795,0.04856
1352.74830,0.04854
1354.78864,0.04897
1356.82899,0.04977
1358.86933,0.05025
1360.90968,0.05027
1362.95002,0.05041
1364.99036,0.05074
1367.03071,0.05112
1369.07105,0.05167
1371.11140,0.05217
1373.15174,0.05247
1375.19209,0.05254
1377.23243,0.05246
1379.27277,0.05261
1381.31312,0.05301
1383.35346,0.05340
1385.39381,0.05364
1387.43415,0.05376
1389.47450,0.05397
1391.51484,0.05438
1393.55518,0.05476
1395.59553,0.05490
1397.63587,0.05484
1399.67622,0.05491
1401.71656,0.05536
1403.75691,0.05588
1405.79725,0.05632
1407.83760,0.05649
1409.87794,0.05651
1411.91828,0.05663
1413.95863,0.05672
1415.99897,0.05675
1418.03932,0.05692
1420.07966,0.05729
1422.12001,0.05786
1424.16035,0.05847
1426.20069,0.05870
1428.24104,0.05863
1430.28138,0.05869
1432.32173,0.05878
1434.36207,0.05887
1436.40242,0.05932
1438.44276,0.05988
1440.48310,0.06020
1442.52345,0.06041
1444.56379,0.06047
1446.60414,0.06067
1448.64448,0.06123
1450.68483,0.06145
1452.72517,0.06114
1454.76551,0.06111
1456.80586,0.06165
1458.84620,0.06216
1460.88655,0.06227
1462.92689,0.06242
1464.96724,0.06273
1467.00758,0.06284
1469.04793,0.06287
1471.08827,0.06306
1473.12861,0.06320
1475.16896,0.06322
1477.20930,0.06330
1479.24965,0.06343
1481.28999,0.06373
1483.33034,0.06401
1485.37068,0.06400
1487.41102,0.06412
1489.45137,0.06464
1491.49171,0.06483
1493.53206,0.06439
1495.57240,0.06389
1497.61275,0.06370
1499.65309,0.06384
1501.69343,0.06427
1503.73378,0.06487
1505.77412,0.06556
1507.81447,0.06584
1509.85481,0.06559
1511.89516,0.06553
1513.93550,0.06572
1515.97585,0.06587
1518.01619,0.06609
1520.05653,0.06668
1522.09688,0.06768
1524.13722,0.06853
1526.17757,0.06878
1528.21791,0.06855
1530.25826,0.06837
1532.29860,0.06849
1534.33894,0.06862
1536.37929,0.06878
1538.41963,0.06902
1540.45998,0.06923
1542.50032,0.06959
1544.54067,0.06978
1546.58101,0.06961
1548.62135,0.06962
1550.66170,0.07002
1552.70204,0.07034
1554.74239,0.07024
1556.78273,0.07005
1558.82308,0.07049
1560.86342,0.07109
1562.90376,0.07105
1564.94411,0.07088
1566.98445,0.07085
1569.02480,0.07105
1571.06514,0.07133
1573.10549,0.07138
1575.14583,0.07154
1577.18618,0.07214
1579.22652,0.07243
1581.26686,0.07229
1583.30721,0.07221
1585.34755,0.07232
1587.38790,0.07246
1589.42824,0.07254
1591.46859,0.07259
1593.50893,0.07274
1595.54927,0.07299
1597.58962,0.07310
1599.62996,0.07294
1601.67031,0.07285
1603.71065,0.07307
1605.75100,0.07338
1607.79134,0.07346
1609.83168,0.07339
1611.87203,0.07341
1613.91237,0.07339
1615.95272,0.07342
1617.99306,0.07392
1620.03341,0.07451
1622.07375,0.07476
1624.11410,0.07493
1626.15444,0.07522
1628.19478,0.07538
1630.23513,0.07542
1632.27547,0.07536
1634.31582,0.07525
1636.35616,0.07534
1638.39651,0.07564
1640.43685,0.07571
1642.47719,0.07558
1644.51754,0.07590
1646.55788,0.07644
1648.59823,0.07654
1650.63857,0.07664
1652.67892,0.07674
1654.71926,0.07655
1656.75960,0.07643
1658.79995,0.07629
1660.84029,0.07621
1662.88064,0.07642
1664.92098,0.07662
1666.96133,0.07664
1669.00167,0.07675
1671.04201,0.07702
1673.08236,0.07731
1675.12270,0.07749
1677.16305,0.07744
1679.20339,0.07731
1681.24374,0.07723
1683.28408,0.07730
1685.32443,0.07768
1687.36477,0.07818
1689.40511,0.07866
1691.44546,0.07886
1693.48580,0.07869
1695.52615,0.07848
1697.56649,0.07847
1699.60684,0.07869
1701.64718,0.07896
1703.68752,0.07901
1705.72787,0.07897
1707.76821,0.07897
1709.80856,0.07904
1711.84890,0.07913
1713.88925,0.07907
1715.92959,0.07906
1717.96993,0.07953
1720.01028,0.07992
1722.05062,0.07995
1724.09097,0.07996
1726.13131,0.07986
1728.17166,0.07968
1730.21200,0.07976
1732.25235,0.08014
1734.29269,0.08065
1736.33303,0.08087
1738.37338,0.08055
1740.41372,0.07996
1742.45407,0.07987
1744.49441,0.08033
1746.53476,0.08082
1748.57510,0.08113
1750.61544,0.08123
1752.65579,0.08110
1754.69613,0.08093
1756.73648,0.08089
1758.77682,0.08087
1760.81717,0.08071
1762.85751,0.08061
1764.89785,0.08072
1766.93820,0.08092
1768.97854,0.08110
1771.01889,0.08119
1773.05923,0.08117
1775.09958,0.08111
1777.13992,0.08122
1779.18027,0.08158
1781.22061,0.08184
1783.26095,0.08159
1785.30130,0.08115
1787.34164,0.08097
1789.38199,0.08091
1791.42233,0.08094
1793.46268,0.08126
1795.50302,0.08141
1797.54336,0.08145
1799.58371,0.08192
1801.62405,0.08248
1803.66440,0.08262
1805.70474,0.08271
1807.74509,0.08280
1809.78543,0.08260
1811.82577,0.08243
1813.86612,0.08259
1815.90646,0.08290
1817.94681,0.08313
1819.98715,0.08328
1822.02750,0.08339
1824.06784,0.08334
1826.10818,0.08312
1828.14853,0.08299
1830.18887,0.08304
1832.22922,0.08320
1834.26956,0.08338
1836.30991,0.08344
1838.35025,0.08340
1840.39060,0.08324
1842.43094,0.08309
1844.47128,0.08326
1846.51163,0.08363
1848.55197,0.08379
1850.59232,0.08380
1852.63266,0.08394
1854.67301,0.08418
1856.71335,0.08436
1858.75369,0.08439
1860.79404,0.08438
1862.83438,0.08460
1864.87473,0.08500
1866.91507,0.08530
1868.95542,0.08524
1870.99576,0.08508
1873.03610,0.08506
1875.07645,0.08496
1877.11679,0.08481
1879.15714,0.08482
1881.19748,0.08489
1883.23783,0.08509
1885.27817,0.08549
1887.31852,0.08564
1889.35886,0.08554
1891.39920,0.08575
1893.43955,0.08616
1895.47989,0.08637
1897.52024,0.08638
1899.56058,0.08646
1901.60093,0.08669
1903.64127,0.08676
1905.68161,0.08642
1907.72196,0.08615
1909.76230,0.08623
1911.80265,0.08639
1913.84299,0.08650
1915.88334,0.08650
1917.92368,0.08636
1919.96402,0.08616
1922.00437,0.08608
1924.04471,0.08617
1926.08506,0.08621
1928.12540,0.08612
1930.16575,0.08615
1932.20609,0.08644
1934.24643,0.08682
1936.28678,0.08711
1938.32712,0.08730
1940.36747,0.08733
1942.40781,0.08738
1944.44816,0.08765
1946.48850,0.08784
1948.52885,0.08783
1950.56919,0.08783
1952.60953,0.08782
1954.64988,0.08784
1956.69022,0.08796
1958.73057,0.08812
1960.77091,0.08824
1962.81126,0.08825
1964.85160,0.08827
1966.89194,0.08835
1968.93229,0.08845
1970.97263,0.08863
1973.01298,0.08890
1975.05332,0.08910
1977.09367,0.08915
1979.13401,0.08911
1981.17435,0.08893
1983.21470,0.08875
1985.25504,0.08885
1987.29539,0.08901
1989.33573,0.08903
1991.37608,0.08901
1993.41642,0.08905
1995.45677,0.08926
1997.49711,0.08947
1999.53745,0.08940
2001.57780,0.08922
2003.61814,0.08923
2005.65849,0.08947
2007.69883,0.08964
2009.73918,0.08958
2011.77952,0.08960
2013.81986,0.08964
2015.86021,0.08946
2017.90055,0.08919
2019.94090,0.08911
2021.98124,0.08929
2024.02159,0.08948
2026.06193,0.08969
2028.10227,0.08992
2030.14262,0.09001
2032.18296,0.09011
2034.22331,0.09032
2036.26365,0.09044
2038.30400,0.09041
2040.34434,0.09041
2042.38468,0.09051
2044.42503,0.09062
2046.46537,0.09058
2048.50572,0.09045
2050.54606,0.09056
2052.58641,0.09100
2054.62675,0.09159
2056.66710,0.09198
2058.70744,0.09202
2060.74778,0.09175
2062.78813,0.09145
2064.82847,0.09149
2066.86882,0.09179
2068.90916,0.09197
2070.94951,0.09197
2072.98985,0.09184
2075.03019,0.09177
2077.07054,0.09199
2079.11088,0.09217
2081.15123,0.09227
2083.19157,0.09252
2085.23192,0.09272
2087.27226,0.09274
2089.31260,0.09268
2091.35295,0.09257
2093.39329,0.09256
2095.43364,0.09276
2097.47398,0.09308
2099.51433,0.09330
2101.55467,0.09321
2103.59502,0.09306
2105.63536,0.09302
2107.67570,0.09294
2109.71605,0.09290
2111.75639,0.09315
2113.79674,0.09352
2115.83708,0.09355
2117.87743,0.09318
2119.91777,0.09281
2121.95811,0.09286
2123.99846,0.09318
2126.03880,0.09339
2128.07915,0.09362
2130.11949,0.09390
2132.15984,0.09402
2134.20018,0.09406
2136.24052,0.09392
2138.28087,0.09364
2140.32121,0.09371
2142.36156,0.09413
2144.40190,0.09425
2146.44225,0.09385
2148.48259,0.09346
2150.52294,0.09368
2152.56328,0.09432
2154.60362,0.09472
2156.64397,0.09487
2158.68431,0.09491
2160.72466,0.09482
2162.76500,0.09487
2164.80535,0.09498
2166.84569,0.09481
2168.88603,0.09468
2170.92638,0.09465
2172.96672,0.09454
2175.00707,0.09453
2177.04741,0.09468
2179.08776,0.09491
2181.12810,0.09512
2183.16844,0.09517
2185.20879,0.09506
2187.24913,0.09499
2189.28948,0.09495
2191.32982,0.09484
2193.37017,0.09487
2195.41051,0.09509
2197.45085,0.09516
2199.49120,0.09520
2201.53154,0.09541
2203.57189,0.09553
2205.61223,0.09551
2207.65258,0.09556
2209.69292,0.09582
2211.73327,0.09616
2213.77361,0.09623
2215.81395,0.09601
2217.85430,0.09589
2219.89464,0.09603
2221.93499,0.09619
2223.97533,0.09610
2226.01568,0.09582
2228.05602,0.09585
2230.09636,0.09625
2232.13671,0.09636
2234.17705,0.09616
2236.21740,0.09618
2238.25774,0.09641
2240.29809,0.09671
2242.33843,0.09707
2244.37877,0.09727
2246.41912,0.09725
2248.45946,0.09724
2250.49981,0.09734
2252.54015,0.09743
2254.58050,0.09735
2256.62084,0.09720
2258.66119,0.09731
2260.70153,0.09753
2262.74187,0.09754
2264.78222,0.09752
2266.82256,0.09751
2268.86291,0.09737
2270.90325,0.09733
2272.94360,0.09745
2274.98394,0.09745
2277.02428,0.09737
2279.06463,0.09731
2281.10497,0.09741
2283.14532,0.09760
2285.18566,0.09745
2287.22601,0.09698
2289.26635,0.09696
2291.30669,0.09748
2293.34704,0.09780
2295.38738,0.09775
2297.42773,0.09770
2299.46807,0.09774
2301.50842,0.09775
2303.54876,0.09780
2305.58910,0.09787
2307.62945,0.09773
2309.66979,0.09765
2311.71014,0.09784
2313.75048,0.09795
2315.79083,0.09781
2317.83117,0.09771
2319.87152,0.09769
2321.91186,0.09771
2323.95220,0.09795
2325.99255,0.09837
2328.03289,0.09862
2330.07324,0.09865
2332.11358,0.09861
2334.15393,0.09850
2336.19427,0.09858
2338.23461,0.09862
2340.27496,0.09834
2342.31530,0.09827
2344.35565,0.09849
2346.39599,0.09830
2348.43634,0.09770
2350.47668,0.09771
2352.51702,0.09826
2354.55737,0.09829
2356.59771,0.09833
2358.63806,0.09888
2360.67840,0.09906
2362.71875,0.09898
2364.75909,0.09876
2366.79944,0.09830
2368.83978,0.09874
2370.88012,0.09972
2372.92047,0.09962
2374.96081,0.09888
2377.00116,0.09852
2379.04150,0.09858
2381.08185,0.09893
2383.12219,0.09914
2385.16253,0.09899
2387.20288,0.09877
2389.24322,0.09865
2391.28357,0.09845
2393.32391,0.09821
2395.36426,0.09827
2397.40460,0.09847
2399.44494,0.09856
2401.48529,0.09871
2403.52563,0.09895
2405.56598,0.09903
2407.60632,0.09913
2409.64667,0.09944
2411.68701,0.09959
2413.72735,0.09953
2415.76770,0.09946
2417.80804,0.09922
2419.84839,0.09903
2421.88873,0.09909
2423.92908,0.09917
2425.96942,0.09907
2428.00977,0.09890
2430.05011,0.09887
2432.09045,0.09896
2434.13080,0.09912
2436.17114,0.09941
2438.21149,0.09963
2440.25183,0.09942
2442.29218,0.09920
2444.33252,0.09933
2446.37286,0.09953
2448.41321,0.09968
2450.45355,0.09975
2452.49390,0.09961
2454.53424,0.09957
2456.57459,0.09974
2458.61493,0.09982
2460.65527,0.09964
2462.69562,0.09939
2464.73596,0.09935
2466.77631,0.09950
2468.81665,0.09964
2470.85700,0.09970
2472.89734,0.09978
2474.93769,0.09991
2476.97803,0.10013
2479.01837,0.10029
2481.05872,0.10011
2483.09906,0.10002
2485.13941,0.10022
2487.17975,0.10018
2489.22010,0.09977
2491.26044,0.09956
2493.30078,0.09990
2495.34113,0.10032
2497.38147,0.10056
2499.42182,0.10066
2501.46216,0.10048
2503.50251,0.10032
2505.54285,0.10026
2507.58319,0.10000
2509.62354,0.09993
2511.66388,0.10028
2513.70423,0.10057
2515.74457,0.10041
2517.78492,0.10014
2519.82526,0.10008
2521.86561,0.09994
2523.90595,0.09980
2525.94629,0.09991
2527.98664,0.10016
2530.02698,0.10045
2532.06733,0.10081
2534.10767,0.10106
2536.14802,0.10078
2538.18836,0.10033
2540.22870,0.10023
2542.26905,0.10023
2544.30939,0.10021
2546.34974,0.10029
2548.39008,0.10028
2550.43043,0.10026
2552.47077,0.10033
2554.51111,0.10042
2556.55146,0.10059
2558.59180,0.10070
2560.63215,0.10073
2562.67249,0.10071
2564.71284,0.10049
2566.75318,0.10032
2568.79352,0.10034
2570.83387,0.10034
2572.87421,0.10042
2574.91456,0.10063
2576.95490,0.10068
2578.99525,0.10065
2581.03559,0.10071
2583.07594,0.10072
2585.11628,0.10092
2587.15662,0.10138
2589.19697,0.10143
2591.23731,0.10086
2593.27766,0.10044
2595.31800,0.10052
2597.35835,0.10070
2599.39869,0.10089
2601.43903,0.10114
2603.47938,0.10118
2605.51972,0.10100
2607.56007,0.10082
2609.60041,0.10081
2611.64076,0.10101
2613.68110,0.10122
2615.72144,0.10115
2617.76179,0.10092
2619.80213,0.10096
2621.84248,0.10140
2623.88282,0.10168
2625.92317,0.10123
2627.96351,0.10064
2630.00386,0.10065
2632.04420,0.10099
2634.08454,0.10111
2636.12489,0.10111
2638.16523,0.10128
2640.20558,0.10146
2642.24592,0.10152
2644.28627,0.10157
2646.32661,0.10160
2648.36695,0.10146
2650.40730,0.10114
2652.44764,0.10110
2654.48799,0.10141
2656.52833,0.10156
2658.56868,0.10145
2660.60902,0.10117
2662.64936,0.10099
2664.68971,0.10108
2666.73005,0.10134
2668.77040,0.10160
2670.81074,0.10164
2672.85109,0.10165
2674.89143,0.10155
2676.93177,0.10122
2678.97212,0.10114
2681.01246,0.10141
2683.05281,0.10160
2685.09315,0.10161
2687.13350,0.10159
2689.17384,0.10173
2691.21419,0.10204
2693.25453,0.10210
2695.29487,0.10185
2697.33522,0.10185
2699.37556,0.10194
2701.41591,0.10162
2703.45625,0.10103
2705.49660,0.10085
2707.53694,0.10137
2709.57728,0.10178
2711.61763,0.10154
2713.65797,0.10113
2715.69832,0.10089
2717.73866,0.10087
2719.77901,0.10130
2721.81935,0.10164
2723.85969,0.10134
2725.90004,0.10106
2727.94038,0.10126
2729.98073,0.10144
2732.02107,0.10127
2734.06142,0.10112
2736.10176,0.10133
2738.14211,0.10155
2740.18245,0.10162
2742.22279,0.10164
2744.26314,0.10150
2746.30348,0.10140
2748.34383,0.10157
2750.38417,0.10158
2752.42452,0.10139
2754.46486,0.10136
2756.50520,0.10158
2758.54555,0.10168
2760.58589,0.10132
2762.62624,0.10062
2764.66658,0.10015
2766.70693,0.10043
2768.74727,0.10113
2770.78761,0.10167
2772.82796,0.10185
2774.86830,0.10171
2776.90865,0.10147
2778.94899,0.10130
2780.98934,0.10128
2783.02968,0.10131
2785.07002,0.10105
2787.11037,0.10066
2789.15071,0.10047
2791.19106,0.10052
2793.23140,0.10078
2795.27175,0.10088
2797.31209,0.10064
2799.35244,0.10050
2801.39278,0.10054
2803.43312,0.10046
2805.47347,0.10058
2807.51381,0.10102
2809.55416,0.10110
2811.59450,0.10077
2813.63485,0.10058
2815.67519,0.10074
2817.71553,0.10121
2819.75588,0.10160
2821.79622,0.10118
2823.83657,0.10046
2825.87691,0.10057
2827.91726,0.10107
2829.95760,0.10100
2831.99794,0.10057
2834.03829,0.10038
2836.07863,0.10019
2838.11898,0.09991
2840.15932,0.10004
2842.19967,0.10054
2844.24001,0.10084
2846.28036,0.10067
2848.32070,0.10044
2850.36104,0.10053
2852.40139,0.10059
2854.44173,0.10038
2856.48208,0.10006
2858.52242,0.10010
2860.56277,0.10035
2862.60311,0.10011
2864.64345,0.09970
2866.68380,0.09991
2868.72414,0.10052
2870.76449,0.10089
2872.80483,0.10100
2874.84518,0.10099
2876.88552,0.10078
2878.92586,0.10071
2880.96621,0.10100
2883.00655,0.10122
2885.04690,0.10118
2887.08724,0.10121
2889.12759,0.10138
2891.16793,0.10129
2893.20828,0.10061
2895.24862,0.09997
2897.28896,0.10023
2899.32931,0.10083
2901.36965,0.10107
2903.41000,0.10136
2905.45034,0.10181
2907.49069,0.10190
2909.53103,0.10160
2911.57137,0.10110
2913.61172,0.10067
2915.65206,0.10055
2917.69241,0.10065
2919.73275,0.10077
2921.77310,0.10067
2923.81344,0.10041
2925.85378,0.10031
2927.89413,0.10059
2929.93447,0.10104
2931.97482,0.10093
2934.01516,0.10057
2936.05551,0.10091
2938.09585,0.10154
2940.13619,0.10145
2942.17654,0.10081
2944.21688,0.10036
2946.25723,0.10052
2948.29757,0.10124
2950.33792,0.10181
2952.37826,0.10170
2954.41861,0.10124
2956.45895,0.10116
2958.49929,0.10147
2960.53964,0.10180
2962.57998,0.10195
2964.62033,0.10197
2966.66067,0.10189
2968.70102,0.10171
2970.74136,0.10148
2972.78170,0.10136
2974.82205,0.10175
2976.86239,0.10255
2978.90274,0.10305
2980.94308,0.10295
2982.98343,0.10248
2985.02377,0.10226
2987.06411,0.10263
2989.10446,0.10298
2991.14480,0.10284
2993.18515,0.10272
2995.22549,0.10290
2997.26584,0.10327
2999.30618,0.10364
3001.34653,0.10367
3003.38687,0.10331
3005.42721,0.10317
3007.46756,0.10341
3009.50790,0.10341
3011.54825,0.10315
3013.58859,0.10308
3015.62894,0.10311
3017.66928,0.10301
3019.70962,0.10304
3021.74997,0.10301
3023.79031,0.10277
3025.83066,0.10272
3027.87100,0.10262
3029.91135,0.10264
3031.95169,0.10326
3033.99203,0.10363
3036.03238,0.10338
3038.07272,0.10323
3040.11307,0.10330
3042.15341,0.10346
3044.19376,0.10377
3046.23410,0.10412
3048.27444,0.10425
3050.31479,0.10392
3052.35513,0.10323
3054.39548,0.10257
3056.43582,0.10216
3058.47617,0.10199
3060.51651,0.10203
3062.55686,0.10262
3064.59720,0.10382
3066.63754,0.10448
3068.67789,0.10413
3070.71823,0.10362
3072.75858,0.10340
3074.79892,0.10342
3076.83927,0.10352
3078.87961,0.10359
3080.91995,0.10352
3082.96030,0.10328
3085.00064,0.10314
3087.04099,0.10333
3089.08133,0.10376
3091.12168,0.10400
3093.16202,0.10392
3095.20236,0.10390
3097.24271,0.10393
3099.28305,0.10386
3101.32340,0.10411
3103.36374,0.10454
3105.40409,0.10443
3107.44443,0.10430
3109.48478,0.10454
3111.52512,0.10432
3113.56546,0.10390
3115.60581,0.10417
3117.64615,0.10457
3119.68650,0.10430
3121.72684,0.10377
3123.76719,0.10380
3125.80753,0.10426
3127.84787,0.10422
3129.88822,0.10352
3131.92856,0.10288
3133.96891,0.10280
3136.00925,0.10326
3138.04960,0.10402
3140.08994,0.10463
3142.13028,0.10463
3144.17063,0.10414
3146.21097,0.10381
3148.25132,0.10392
3150.29166,0.10391
3152.33201,0.10350
3154.37235,0.10320
3156.41269,0.10317
3158.45304,0.10332
3160.49338,0.10344
3162.53373,0.10349
3164.57407,0.10374
3166.61442,0.10402
3168.65476,0.10402
3170.69511,0.10359
3172.73545,0.10307
3174.77579,0.10298
3176.81614,0.10302
3178.85648,0.10288
3180.89683,0.10300
3182.93717,0.10326
3184.97752,0.10330
3187.01786,0.10333
3189.05820,0.10334
3191.09855,0.10325
3193.13889,0.10309
3195.17924,0.10274
3197.21958,0.10258
3199.25993,0.10289
3201.30027,0.10313
3203.34061,0.10328
3205.38096,0.10366
3207.42130,0.10380
3209.46165,0.10368
3211.50199,0.10374
3213.54234,0.10380
3215.58268,0.10356
3217.62303,0.10350
3219.66337,0.10371
3221.70371,0.10368
3223.74406,0.10378
3225.78440,0.10415
3227.82475,0.10414
3229.86509,0.10370
3231.90544,0.10343
3233.94578,0.10353
3235.98612,0.10378
3238.02647,0.10400
3240.06681,0.10394
3242.10716,0.10366
3244.14750,0.10357
3246.18785,0.10346
3248.22819,0.10304
3250.26853,0.10268
3252.30888,0.10279
3254.34922,0.10331
3256.38957,0.10385
3258.42991,0.10416
3260.47026,0.10433
3262.51060,0.10433
3264.55095,0.10404
3266.59129,0.10344
3268.63163,0.10301
3270.67198,0.10304
3272.71232,0.10308
3274.75267,0.10312
3276.79301,0.10338
3278.83336,0.10362
3280.87370,0.10365
3282.91404,0.10370
3284.95439,0.10379
3286.99473,0.10367
3289.03508,0.10347
3291.07542,0.10320
3293.11577,0.10285
3295.15611,0.10292
3297.19645,0.10331
3299.23680,0.10353
3301.27714,0.10387
3303.31749,0.10433
3305.35783,0.10427
3307.39818,0.10360
3309.43852,0.10301
3311.47886,0.10288
3313.51921,0.10311
3315.55955,0.10334
3317.59990,0.10354
3319.64024,0.10391
3321.68059,0.10416
3323.72093,0.10409
3325.76128,0.10389
3327.80162,0.10365
3329.84196,0.10332
3331.88231,0.10323
3333.92265,0.10351
3335.96300,0.10360
3338.00334,0.10341
3340.04369,0.10322
3342.08403,0.10295
3344.12437,0.10304
3346.16472,0.10369
3348.20506,0.10401
3350.24541,0.10390
3352.28575,0.10390
3354.32610,0.10390
3356.36644,0.10384
3358.40678,0.10359
3360.44713,0.10323
3362.48747,0.10326
3364.52782,0.10351
3366.56816,0.10364
3368.60851,0.10393
3370.64885,0.10457
3372.68920,0.10489
3374.72954,0.10448
3376.76988,0.10403
3378.81023,0.10384
3380.85057,0.10383
3382.89092,0.10399
3384.93126,0.10384
3386.97161,0.10349
3389.01195,0.10372
3391.05229,0.10433
3393.09264,0.10436
3395.13298,0.10358
3397.17333,0.10294
3399.21367,0.10311
3401.25402,0.10351
3403.29436,0.10346
3405.33470,0.10330
3407.37505,0.10357
3409.41539,0.10383
3411.45574,0.10384
3413.49608,0.10396
3415.53643,0.10389
3417.57677,0.10362
3419.61711,0.10372
3421.65746,0.10393
3423.69780,0.10385
3425.73815,0.10377
3427.77849,0.10393
3429.81884,0.10411
3431.85918,0.10412
3433.89953,0.10411
3435.93987,0.10429
3437.98021,0.10439
3440.02056,0.10430
3442.06090,0.10443
3444.10125,0.10437
3446.14159,0.10383
3448.18194,0.10394
3450.22228,0.10467
3452.26262,0.10507
3454.30297,0.10504
3456.34331,0.10492
3458.38366,0.10479
3460.42400,0.10449
3462.46435,0.10431
3464.50469,0.10445
3466.54503,0.10472
3468.58538,0.10495
3470.62572,0.10468
3472.66607,0.10398
3474.70641,0.10367
3476.74676,0.10384
3478.78710,0.10370
3480.82745,0.10340
3482.86779,0.10360
3484.90813,0.10436
3486.94848,0.10504
3488.98882,0.10485
3491.02917,0.10405
3493.06951,0.10360
3495.10986,0.10369
3497.15020,0.10394
3499.19054,0.10419
3501.23089,0.10444
3503.27123,0.10466
3505.31158,0.10468
3507.35192,0.10440
3509.39227,0.10410
3511.43261,0.10419
3513.47295,0.10459
3515.51330,0.10478
3517.55364,0.10437
3519.59399,0.10384
3521.63433,0.10387
3523.67468,0.10430
3525.71502,0.10441
3527.75536,0.10401
3529.79571,0.10385
3531.83605,0.10431
3533.87640,0.10485
3535.91674,0.10505
3537.95709,0.10486
3539.99743,0.10487
3542.03778,0.10522
3544.07812,0.10524
3546.11846,0.10495
3548.15881,0.10489
3550.19915,0.10514
3552.23950,0.10535
3554.27984,0.10532
3556.32019,0.10541
3558.36053,0.10558
3560.40087,0.10547
3562.44122,0.10511
3564.48156,0.10484
3566.52191,0.10489
3568.56225,0.10512
3570.60260,0.10549
3572.64294,0.10583
3574.68328,0.10591
3576.72363,0.10586
3578.76397,0.10573
3580.80432,0.10561
3582.84466,0.10565
3584.88501,0.10570
3586.92535,0.10596
3588.96570,0.10650
3591.00604,0.10663
3593.04638,0.10640
3595.08673,0.10643
3597.12707,0.10696
3599.16742,0.10766
3601.20776,0.10793
3603.24811,0.10745
3605.28845,0.10666
3607.32879,0.10624
3609.36914,0.10649
3611.40948,0.10699
3613.44983,0.10735
3615.49017,0.10730
3617.53052,0.10670
3619.57086,0.10636
3621.61120,0.10703
3623.65155,0.10798
3625.69189,0.10811
3627.73224,0.10738
3629.77258,0.10689
3631.81293,0.10691
3633.85327,0.10702
3635.89362,0.10721
3637.93396,0.10749
3639.97430,0.10791
3642.01465,0.10847
3644.05499,0.10857
3646.09534,0.10769
3648.13568,0.10673
3650.17603,0.10690
3652.21637,0.10748
3654.25671,0.10772
3656.29706,0.10783
3658.33740,0.10824
3660.37775,0.10862
3662.41809,0.10860
3664.45844,0.10842
3666.49878,0.10808
3668.53912,0.10777
3670.57947,0.10762
3672.61981,0.10746
3674.66016,0.10770
3676.70050,0.10823
3678.74085,0.10857
3680.78119,0.10867
3682.82153,0.10846
3684.86188,0.10825
3686.90222,0.10809
3688.94257,0.10773
3690.98291,0.10761
3693.02326,0.10782
3695.06360,0.10805
3697.10395,0.10842
3699.14429,0.10879
3701.18463,0.10889
3703.22498,0.10886
3705.26532,0.10846
3707.30567,0.10783
3709.34601,0.10794
3711.38636,0.10875
3713.42670,0.10895
3715.46704,0.10839
3717.50739,0.10778
3719.54773,0.10774
3721.58808,0.10852
3723.62842,0.10947
3725.66877,0.10994
3727.70911,0.10976
3729.74945,0.10923
3731.78980,0.10893
3733.83014,0.10892
3735.87049,0.10909
3737.91083,0.10915
3739.95118,0.10851
3741.99152,0.10771
3744.03187,0.10753
3746.07221,0.10733
3748.11255,0.10715
3750.15290,0.10751
3752.19324,0.10804
3754.23359,0.10831
3756.27393,0.10821
3758.31428,0.10799
3760.35462,0.10789
3762.39496,0.10804
3764.43531,0.10848
3766.47565,0.10869
3768.51600,0.10856
3770.55634,0.10868
3772.59669,0.10902
3774.63703,0.10903
3776.67737,0.10901
3778.71772,0.10929
3780.75806,0.10922
3782.79841,0.10861
3784.83875,0.10786
3786.87910,0.10756
3788.91944,0.10808
3790.95978,0.10862
3793.00013,0.10907
3795.04047,0.10984
3797.08082,0.10980
3799.12116,0.10833
3801.16151,0.10695
3803.20185,0.10699
3805.24220,0.10770
3807.28254,0.10841
3809.32288,0.10894
3811.36323,0.10930
3813.40357,0.10980
3815.44392,0.11013
3817.48426,0.10969
3819.52461,0.10921
3821.56495,0.10916
3823.60529,0.10889
3825.64564,0.10877
3827.68598,0.10907
3829.72633,0.10905
3831.76667,0.10864
3833.80702,0.10812
3835.84736,0.10767
3837.88770,0.10775
3839.92805,0.10808
3841.96839,0.10851
3844.00874,0.10948
3846.04908,0.11011
3848.08943,0.10969
3850.12977,0.10919
3852.17012,0.10996
3854.21046,0.11119
3856.25080,0.11092
3858.29115,0.11019
3860.33149,0.10959
3862.37184,0.10928
3864.41218,0.10937
3866.45253,0.10912
3868.49287,0.10880
3870.53321,0.10907
3872.57356,0.10925
3874.61390,0.10916
3876.65425,0.10930
3878.69459,0.10951
3880.73494,0.10923
3882.77528,0.10879
3884.81562,0.10906
3886.85597,0.10956
3888.89631,0.10943
3890.93666,0.10914
3892.97700,0.10942
3895.01735,0.10984
3897.05769,0.10949
3899.09803,0.10828
3901.13838,0.10745
3903.17872,0.10824
3905.21907,0.10953
3907.25941,0.10957
3909.29976,0.10882
3911.34010,0.10840
3913.38045,0.10845
3915.42079,0.10884
3917.46113,0.10926
3919.50148,0.10928
3921.54182,0.10913
3923.58217,0.10906
3925.62251,0.10899
3927.66286,0.10925
3929.70320,0.10954
3931.74354,0.10921
3933.78389,0.10941
3935.82423,0.11025
3937.86458,0.11018
3939.90492,0.10938
3941.94527,0.10865
3943.98561,0.10815
3946.02595,0.10817
3948.06630,0.10861
3950.10664,0.10867
3952.14699,0.10800
3954.18733,0.10770
3956.22768,0.10806
3958.26802,0.10827
3960.30837,0.10831
3962.34871,0.10854
3964.38905,0.10874
3966.42940,0.10884
3968.46974,0.10891
3970.51009,0.10862
3972.55043,0.10818
3974.59078,0.10843
3976.63112,0.10941
3978.67146,0.11033
3980.71181,0.11047
3982.75215,0.11007
3984.79250,0.10993
3986.83284,0.10994
3988.87319,0.10935
3990.91353,0.10859
3992.95387,0.10867
3994.99422,0.10931
3997.03456,0.10974
3999.07491,0.10992
4001.11525,0.11000
4003.15560,0.11006
4005.19594,0.10975
4007.23629,0.10887
4009.27663,0.10830
4011.31697,0.10828
4013.35732,0.10853
4015.39766,0.10902
4017.43801,0.10925
4019.47835,0.10906
4021.51870,0.10900
4023.55904,0.10900
4025.59938,0.10871
4027.63973,0.10867
4029.68007,0.10927
4031.72042,0.10973
4033.76076,0.10926
4035.80111,0.10809
4037.84145,0.10735
4039.88179,0.10787
4041.92214,0.10859
4043.96248,0.10877
4046.00283,0.10922
4048.04317,0.10952
4050.08352,0.10919
4052.12386,0.10912
4054.16420,0.10932
4056.20455,0.10917
4058.24489,0.10893
4060.28524,0.10904
4062.32558,0.10933
4064.36593,0.10966
4066.40627,0.10992
4068.44662,0.10966
4070.48696,0.10929
4072.52730,0.10953
4074.56765,0.10989
4076.60799,0.10957
4078.64834,0.10890
4080.68868,0.10867
4082.72903,0.10883
4084.76937,0.10908
4086.80971,0.10955
4088.85006,0.11005
4090.89040,0.10998
4092.93075,0.10945
4094.97109,0.10920
4097.01144,0.10928
4099.05178,0.10942
4101.09212,0.10940
4103.13247,0.10909
4105.17281,0.10910
4107.21316,0.10968
4109.25350,0.11040
4111.29385,0.11094
4113.33419,0.11116
4115.37454,0.11101
4117.41488,0.11040
4119.45522,0.10941
4121.49557,0.10874
4123.53591,0.10879
4125.57626,0.10896
4127.61660,0.10896
4129.65695,0.10927
4131.69729,0.10973
4133.73763,0.10974
4135.77798,0.10947
4137.81832,0.10958
4139.85867,0.10979
4141.89901,0.10930
4143.93936,0.10844
4145.97970,0.10841
4148.02004,0.10945
4150.06039,0.11041
4152.10073,0.11055
4154.14108,0.11065
4156.18142,0.11135
4158.22177,0.11180
4160.26211,0.11135
4162.30245,0.11073
4164.34280,0.11012
4166.38314,0.10941
4168.42349,0.10941
4170.46383,0.11003
4172.50418,0.11009
4174.54452,0.10970
4176.58487,0.10976
4178.62521,0.11000
4180.66555,0.10986
4182.70590,0.10992
4184.74624,0.11021
4186.78659,0.11006
4188.82693,0.10971
4190.86728,0.10935
4192.90762,0.10916
4194.94796,0.10946
4196.98831,0.11014
4199.02865,0.11103
4201.06900,0.11117
4203.10934,0.11044
4205.14969,0.11006
4207.19003,0.11016
4209.23037,0.11034
4211.27072,0.11034
4213.31106,0.11021
4215.35141,0.11044
4217.39175,0.11065
4219.43210,0.11044
4221.47244,0.11036
4223.51279,0.11000
4225.55313,0.10875
4227.59347,0.10761
4229.63382,0.10729
4231.67416,0.10762
4233.71451,0.10844
4235.75485,0.10921
4237.79520,0.10942
4239.83554,0.10936
4241.87588,0.10955
4243.91623,0.11001
4245.95657,0.11044
4247.99692,0.11042
4250.03726,0.10983
4252.07761,0.10927
4254.11795,0.10884
4256.15829,0.10831
4258.19864,0.10844
4260.23898,0.10967
4262.27933,0.11086
4264.31967,0.11106
4266.36002,0.11071
4268.40036,0.11013
4270.44070,0.10918
4272.48105,0.10860
4274.52139,0.10888
4276.56174,0.10926
4278.60208,0.10959
4280.64243,0.11035
4282.68277,0.11113
4284.72312,0.11119
4286.76346,0.11034
4288.80380,0.10888
4290.84415,0.10787
4292.88449,0.10771
4294.92484,0.10776
4296.96518,0.10788
4299.00553,0.10833
4301.04587,0.10915
4303.08621,0.11012
4305.12656,0.11054
4307.16690,0.11007
4309.20725,0.10930
4311.24759,0.10885
4313.28794,0.10915
4315.32828,0.11051
4317.36862,0.11182
4319.40897,0.11168
4321.44931,0.11084
4323.48966,0.11026
4325.53000,0.10938
4327.57035,0.10858
4329.61069,0.10854
4331.65104,0.10853
4333.69138,0.10849
4335.73172,0.10864
4337.77207,0.10868
4339.81241,0.10904
4341.85276,0.10985
4343.89310,0.11033
4345.93345,0.11025
4347.97379,0.10986
4350.01413,0.10924
4352.05448,0.10883
4354.09482,0.10882
4356.13517,0.10896
4358.17551,0.10936
4360.21586,0.10990
4362.25620,0.10976
4364.29654,0.10890
4366.33689,0.10856
4368.37723,0.10927
4370.41758,0.11006
4372.45792,0.11062
4374.49827,0.11111
4376.53861,0.11084
4378.57896,0.10988
4380.61930,0.10933
4382.65964,0.10942
4384.69999,0.10976
4386.74033,0.11024
4388.78068,0.11066
4390.82102,0.11083
4392.86137,0.11093
4394.90171,0.11089
4396.94205,0.11002
4398.98240,0.10872
4401.02274,0.10819
4403.06309,0.10860
4405.10343,0.10942
4407.14378,0.11013
4409.18412,0.11086
4411.22446,0.11120
4413.26481,0.11027
4415.30515,0.10927
4417.34550,0.10947
4419.38584,0.10969
4421.42619,0.10927
4423.46653,0.10889
4425.50687,0.10870
4427.54722,0.10895
4429.58756,0.10966
4431.62791,0.11003
4433.66825,0.10952
4435.70860,0.10845
4437.74894,0.10820
4439.78929,0.10928
4441.82963,0.11035
4443.86997,0.11089
4445.91032,0.11136
4447.95066,0.11154
4449.99101,0.11101
4452.03135,0.10991
4454.07170,0.10938
4456.11204,0.10993
4458.15238,0.11034
4460.19273,0.11025
4462.23307,0.11034
4464.27342,0.11007
4466.31376,0.10944
4468.35411,0.10963
4470.39445,0.11049
4472.43479,0.11087
4474.47514,0.11071
4476.51548,0.11089
4478.55583,0.11099
4480.59617,0.11043
4482.63652,0.10993
4484.67686,0.10966
4486.71721,0.10990
4488.75755,0.11025
4490.79789,0.10977
4492.83824,0.10931
4494.87858,0.10955
4496.91893,0.10997
4498.95927,0.11041
4500.99962,0.11065
4503.03996,0.11033
4505.08030,0.10989
4507.12065,0.10978
4509.16099,0.10955
4511.20134,0.10928
4513.24168,0.10913
4515.28203,0.10871
4517.32237,0.10849
4519.36271,0.10917
4521.40306,0.11027
4523.44340,0.11052
4525.48375,0.10982
4527.52409,0.10961
4529.56444,0.10977
4531.60478,0.10944
4533.64512,0.10948
4535.68547,0.11052
4537.72581,0.11149
4539.76616,0.11099
4541.80650,0.10956
4543.84685,0.10915
4545.88719,0.10996
4547.92754,0.11064
4549.96788,0.11036
4552.00822,0.10982
4554.04857,0.11036
4556.08891,0.11141
4558.12926,0.11183
4560.16960,0.11217
4562.20995,0.11244
4564.25029,0.11148
4566.29063,0.11008
4568.33098,0.10985
4570.37132,0.11028
4572.41167,0.11015
4574.45201,0.10954
4576.49236,0.10919
4578.53270,0.10951
4580.57304,0.11048
4582.61339,0.11144
4584.65373,0.11142
4586.69408,0.11094
4588.73442,0.11119
4590.77477,0.11190
4592.81511,0.11239
4594.85546,0.11214
4596.89580,0.11119
4598.93614,0.11023
4600.97649,0.10975
4603.01683,0.11004
4605.05718,0.11072
4607.09752,0.11125
4609.13787,0.11131
4611.17821,0.11070
4613.21855,0.11012
4615.25890,0.11038
4617.29924,0.11117
4619.33959,0.11131
4621.37993,0.11057
4623.42028,0.11021
4625.46062,0.11046
4627.50096,0.11029
4629.54131,0.10987
4631.58165,0.11012
4633.62200,0.11069
4635.66234,0.11087
4637.70269,0.11071
4639.74303,0.11032
4641.78337,0.10985
4643.82372,0.10973
4645.86406,0.10998
4647.90441,0.11055
4649.94475,0.11090
4651.98510,0.11093
4654.02544,0.11170
4656.06579,0.11234
4658.10613,0.11147
4660.14647,0.11028
4662.18682,0.11008
4664.22716,0.11048
4666.26751,0.11092
4668.30785,0.11092
4670.34820,0.11072
4672.38854,0.11159
4674.42888,0.11302
4676.46923,0.11337
4678.50957,0.11228
4680.54992,0.11066
4682.59026,0.11041
4684.63061,0.11203
4686.67095,0.11283
4688.71129,0.11146
4690.75164,0.11042
4692.79198,0.11086
4694.83233,0.11164
4696.87267,0.11190
4698.91302,0.11160
4700.95336,0.11126
4702.99371,0.11104
4705.03405,0.11164
4707.07439,0.11316
4709.11474,0.11354
4711.15508,0.11210
4713.19543,0.11017
4715.23577,0.10912
4717.27612,0.10944
4719.31646,0.11031
4721.35680,0.11079
4723.39715,0.11059
4725.43749,0.11100
4727.47784,0.11204
4729.51818,0.11195
4731.55853,0.11131
4733.59887,0.11109
4735.63921,0.11112
4737.67956,0.11174
4739.71990,0.11189
4741.76025,0.11076
4743.80059,0.10984
4745.84094,0.10953
4747.88128,0.10944
4749.92163,0.10985
4751.96197,0.11034
4754.00231,0.11037
4756.04266,0.11037
4758.08300,0.11054
4760.12335,0.11059
4762.16369,0.11052
4764.20404,0.11040
4766.24438,0.10997
4768.28472,0.10890
4770.32507,0.10798
4772.36541,0.10850
4774.40576,0.10991
4776.44610,0.11081
4778.48645,0.11142
4780.52679,0.11200
4782.56713,0.11184
4784.60748,0.11092
4786.64782,0.10953
4788.68817,0.10810
4790.72851,0.10803
4792.76886,0.10978
4794.80920,0.11121
4796.84954,0.11004
4798.88989,0.10776
4800.93023,0.10759
4802.97058,0.10951
4805.01092,0.11131
4807.05127,0.11143
4809.09161,0.11000
4811.13196,0.10865
4813.17230,0.10808
4815.21264,0.10900
4817.25299,0.11129
4819.29333,0.11295
4821.33368,0.11322
4823.37402,0.11237
4825.41437,0.11115
4827.45471,0.11088
4829.49505,0.11174
4831.53540,0.11268
4833.57574,0.11294
4835.61609,0.11269
4837.65643,0.11171
4839.69678,0.11045
4841.73712,0.11048
4843.77746,0.11132
4845.81781,0.11156
4847.85815,0.11120
4849.89850,0.11082
4851.93884,0.11069
4853.97919,0.11101
4856.01953,0.11149
4858.05988,0.11095
4860.10022,0.10935
4862.14056,0.10812
4864.18091,0.10774
4866.22125,0.10698
4868.26160,0.10715
4870.30194,0.11012
4872.34229,0.11297
4874.38263,0.11337
4876.42297,0.11282
4878.46332,0.11202
4880.50366,0.11029
4882.54401,0.10852
4884.58435,0.10823
4886.62470,0.10939
4888.66504,0.11111
4890.70538,0.11232
4892.74573,0.11255
4894.78607,0.11290
4896.82642,0.11394
4898.86676,0.11375
4900.90711,0.11247
4902.94745,0.11173
4904.98779,0.11139
4907.02814,0.11053
4909.06848,0.10915
4911.10883,0.10899
4913.14917,0.10998
4915.18952,0.11144
4917.22986,0.11361
4919.27021,0.11379
4921.31055,0.11188
4923.35089,0.11128
4925.39124,0.11211
4927.43158,0.11262
4929.47193,0.11258
4931.51227,0.11275
4933.55262,0.11301
4935.59296,0.11291
4937.63330,0.11208
4939.67365,0.11031
4941.71399,0.11092
4943.75434,0.11402
4945.79468,0.11476
4947.83503,0.11409
4949.87537,0.11472
4951.91571,0.11362
4953.95606,0.10972
4955.99640,0.10676
4958.03675,0.10614
4960.07709,0.10662
4962.11744,0.10864
4964.15778,0.11145
4966.19813,0.11161
4968.23847,0.11038
4970.27881,0.11124
4972.31916,0.11190
4974.35950,0.10984
4976.39985,0.10730
4978.44019,0.10629
4980.48054,0.10646
4982.52088,0.10792
4984.56122,0.10981
4986.60157,0.11059
4988.64191,0.11114
4990.68226,0.11326
4992.72260,0.11560
4994.76295,0.11509
4996.80329,0.11222
4998.84363,0.10997
5000.88398,0.10974
5002.92432,0.10999
5004.96467,0.11077
5007.00501,0.11181
5009.04536,0.11077
5011.08570,0.10875
5013.12604,0.10876
5015.16639,0.11028
5017.20673,0.11059
5019.24708,0.10964
5021.28742,0.10839
5023.32777,0.10607
5025.36811,0.10427
5027.40846,0.10575
5029.44880,0.10819
5031.48914,0.10908
5033.52949,0.11082
5035.56983,0.11248
5037.61018,0.11125
5039.65052,0.10910
5041.69087,0.10919
5043.73121,0.11186
5045.77155,0.11426
5047.81190,0.11357
5049.85224,0.11083
5051.89259,0.10960
5053.93293,0.11032
5055.97328,0.11106
5058.01362,0.10956
5060.05396,0.10618
5062.09431,0.10620
5064.13465,0.10883
5066.17500,0.10988
5068.21534,0.11022
5070.25569,0.11007
5072.29603,0.10946
5074.33638,0.10976
5076.37672,0.11086
5078.41706,0.11062
5080.45741,0.10851
5082.49775,0.10766
5084.53810,0.10967
5086.57844,0.11194
5088.61879,0.11307
5090.65913,0.11456
5092.69947,0.11332
5094.73982,0.10731
5096.78016,0.10639
5098.82051,0.11245
5100.86085,0.11376
5102.90120,0.10941
5104.94154,0.10721
5106.98188,0.10947
5109.02223,0.11159
5111.06257,0.11087
5113.10292,0.11040
5115.14326,0.11119
5117.18361,0.11105
5119.22395,0.10868
5121.26430,0.10717
5123.30464,0.10928
5125.34498,0.11110
5127.38533,0.11000
5129.42567,0.10828
5131.46602,0.10834
5133.50636,0.11074
5135.54671,0.11272
5137.58705,0.11156
5139.62739,0.11101
5141.66774,0.11470
5143.70808,0.11823
5145.74843,0.11751
5147.78877,0.11451
5149.82912,0.11109
5151.86946,0.10903
5153.90980,0.11031
5155.95015,0.11358
5157.99049,0.11575
5160.03084,0.11360
5162.07118,0.10945
5164.11153,0.10817
5166.15187,0.11005
5168.19221,0.11228
5170.23256,0.11276
5172.27290,0.11243
5174.31325,0.11178
5176.35359,0.11164
5178.39394,0.11268
5180.43428,0.11386
5182.47463,0.11356
5184.51497,0.11094
5186.55531,0.10871
5188.59566,0.10725
5190.63600,0.10598
5192.67635,0.10603
5194.71669,0.10567
5196.75704,0.10560
5198.79738,0.10830
5200.83772,0.10984
5202.87807,0.10671
5204.91841,0.10246
5206.95876,0.10364
5208.99910,0.10793
5211.03945,0.11143
5213.07979,0.11731
5215.12013,0.12192
5217.16048,0.12056
5219.20082,0.11903
5221.24117,0.12052
5223.28151,0.12000
5225.32186,0.11730
5227.36220,0.11621
5229.40255,0.11494
5231.44289,0.11327
5233.48323,0.11419
5235.52358,0.11476
5237.56392,0.11339
5239.60427,0.11344
5241.64461,0.11342
5243.68496,0.11077
5245.72530,0.10816
5247.76564,0.10663
5249.80599,0.10662
5251.84633,0.10842
5253.88668,0.10879
5255.92702,0.10767
5257.96737,0.11032
5260.00771,0.11493
5262.04805,0.11307
5264.08840,0.10695
5266.12874,0.10727
5268.16909,0.11549
5270.20943,0.12198
5272.24978,0.12212
5274.29012,0.11960
5276.33046,0.11752
5278.37081,0.11578
5280.41115,0.11483
5282.45150,0.11869
5284.49184,0.12542
5286.53219,0.12354
5288.57253,0.11379
5290.61288,0.11076
5292.65322,0.11750
5294.69356,0.12262
5296.73391,0.12094
5298.77425,0.11919
5300.81460,0.12027
5302.85494,0.11984
5304.89529,0.11712
5306.93563,0.11433
5308.97597,0.11387
5311.01632,0.11478
5313.05666,0.11251
5315.09701,0.10816
5317.13735,0.10677
5319.17770,0.10848
5321.21804,0.11109
5323.25838,0.11322
5325.29873,0.11548
5327.33907,0.11704
5329.37942,0.11356
5331.41976,0.10715
5333.46011,0.10660
5335.50045,0.11200
5337.54080,0.11335
5339.58114,0.11186
5341.62148,0.11527
5343.66183,0.11823
5345.70217,0.11545
5347.74252,0.11311
5349.78286,0.11365
5351.82321,0.11461
5353.86355,0.11477
5355.90389,0.11269
5357.94424,0.11192
5359.98458,0.11509
5362.02493,0.11686
5364.06527,0.11460
5366.10562,0.10859
5368.14596,0.10475
5370.18630,0.10877
5372.22665,0.11425
5374.26699,0.11615
5376.30734,0.11615
5378.34768,0.11709
5380.38803,0.12149
5382.42837,0.12666
5384.46871,0.12879
5386.50906,0.12989
5388.54940,0.12812
5390.58975,0.12180
5392.63009,0.11735
5394.67044,0.11988
5396.71078,0.12417
5398.75113,0.12313
5400.79147,0.12039
5402.83181,0.11867
5404.87216,0.11741
5406.91250,0.12048
5408.95285,0.12644
5410.99319,0.12778
5413.03354,0.12193
5415.07388,0.11401
5417.11422,0.10863
5419.15457,0.10777
5421.19491,0.10994
5423.23526,0.10958
5425.27560,0.10778
5427.31595,0.10877
5429.35629,0.11025
5431.39663,0.11204
5433.43698,0.11451
5435.47732,0.11201
5437.51767,0.10691
5439.55801,0.10616
5441.59836,0.10939
5443.63870,0.11311
5445.67905,0.11284
5447.71939,0.10575
5449.75973,0.10132
5451.80008,0.10623
5453.84042,0.11379
5455.88077,0.11902
5457.92111,0.12131
5459.96146,0.12075
5462.00180,0.11760
5464.04214,0.11494
5466.08249,0.11623
5468.12283,0.11889
5470.16318,0.11878
5472.20352,0.11749
5474.24387,0.12238
5476.28421,0.12828
5478.32455,0.12559
5480.36490,0.12342
5482.40524,0.13006
5484.44559,0.13745
5486.48593,0.13685
5488.52628,0.13143
5490.56662,0.12773
5492.60697,0.12384
5494.64731,0.11962
5496.68765,0.12021
5498.72800,0.12082
5500.76834,0.11462
5502.80869,0.10404
5504.84903,0.10059
5506.88938,0.10556
5508.92972,0.10897
5510.97006,0.10556
5513.01041,0.10091
5515.05075,0.10352
5517.09110,0.11286
5519.13144,0.12156
5521.17179,0.12019
5523.21213,0.11106
5525.25247,0.10785
5527.29282,0.11029
5529.33316,0.11334
5531.37351,0.11464
5533.41385,0.11440
5535.45420,0.11338
5537.49454,0.11072
5539.53488,0.10981
5541.57523,0.11597
5543.61557,0.12197
5545.65592,0.11959
5547.69626,0.11484
5549.73661,0.11280
5551.77695,0.11139
5553.81730,0.11068
5555.85764,0.11057
5557.89798,0.10502
5559.93833,0.10250
5561.97867,0.11427
5564.01902,0.12415
5566.05936,0.12495
5568.09971,0.12404
5570.14005,0.12031
5572.18039,0.11040
5574.22074,0.10215
5576.26108,0.10237
5578.30143,0.10920
5580.34177,0.11704
5582.38212,0.12256
5584.42246,0.12479
5586.46280,0.11876
5588.50315,0.11099
5590.54349,0.10946
5592.58384,0.10984
5594.62418,0.10916
5596.66453,0.11092
5598.70487,0.11612
5600.74522,0.12256
5602.78556,0.12703
5604.82590,0.12421
5606.86625,0.11633
5608.90659,0.11054
5610.94694,0.10727
5612.98728,0.10696
5615.02763,0.11138
5617.06797,0.11408
5619.10831,0.11132
5621.14866,0.11170
5623.18900,0.11858
5625.22935,0.11911
5627.26969,0.10602
5629.31004,0.09497
5631.35038,0.09799
5633.39072,0.10398
5635.43107,0.10523
5637.47141,0.10664
5639.51176,0.10667
5641.55210,0.10457
5643.59245,0.10623
5645.63279,0.11199
5647.67313,0.11745
5649.71348,0.11872
5651.75382,0.11648
5653.79417,0.11577
5655.83451,0.11675
5657.87486,0.11766
5659.91520,0.11628
5661.95555,0.11264
5663.99589,0.10904
5666.03623,0.10516
5668.07658,0.10329
5670.11692,0.10663
5672.15727,0.11167
5674.19761,0.11349
5676.23796,0.11183
5678.27830,0.10912
5680.31864,0.10775
5682.35899,0.10802
5684.39933,0.11188
5686.43968,0.11872
5688.48002,0.12424
5690.52037,0.12362
5692.56071,0.11259
5694.60105,0.09893
5696.64140,0.09861
5698.68174,0.10548
5700.72209,0.10415
5702.76243,0.10208
5704.80278,0.10926
5706.84312,0.11910
5708.88347,0.12543
5710.92381,0.12793
5712.96415,0.12795
5715.00450,0.13052
5717.04484,0.13472
5719.08519,0.13499
5721.12553,0.12819
5723.16588,0.11609
5725.20622,0.10836
5727.24656,0.10645
5729.28691,0.10743
5731.32725,0.11158
5733.36760,0.11132
5735.40794,0.10700
5737.44829,0.10927
5739.48863,0.11668
5741.52897,0.12101
5743.56932,0.11782
5745.60966,0.10662
5747.65001,0.09629
5749.69035,0.09775
5751.73070,0.10787
5753.77104,0.11411
5755.81138,0.11234
5757.85173,0.10438
5759.89207,0.09378
5761.93242,0.09022
5763.97276,0.09781
5766.01311,0.10502
5768.05345,0.10079
5770.09380,0.09544
5772.13414,0.10157
5774.17448,0.11177
5776.21483,0.11747
5778.25517,0.12088
5780.29552,0.12311
5782.33586,0.12373
5784.37621,0.11945
5786.41655,0.11513
5788.45689,0.11747
5790.49724,0.11641
5792.53758,0.11173
5794.57793,0.10875
5796.61827,0.10417
5798.65862,0.10060
5800.69896,0.09921
5802.73930,0.10263
5804.77965,0.11322
5806.81999,0.11974
5808.86034,0.12165
5810.90068,0.12664
5812.94103,0.12851
5814.98137,0.12592
5817.02172,0.12258
5819.06206,0.11808
5821.10240,0.11581
5823.14275,0.11024
5825.18309,0.10246
5827.22344,0.10242
5829.26378,0.10348
5831.30413,0.10511
5833.34447,0.11222
5835.38481,0.11854
5837.42516,0.12296
5839.46550,0.12432
5841.50585,0.11741
5843.54619,0.10670
5845.58654,0.10226
5847.62688,0.10588
5849.66722,0.10749
5851.70757,0.10064
5853.74791,0.09392
5855.78826,0.09698
5857.82860,0.11039
5859.86895,0.12383
5861.90929,0.12351
5863.94964,0.11498
5865.98998,0.11276
5868.03032,0.11611
5870.07067,0.11496
5872.11101,0.10904
5874.15136,0.10829
5876.19170,0.11002
5878.23205,0.10747
5880.27239,0.10796
5882.31273,0.11383
5884.35308,0.11646
5886.39342,0.11581
5888.43377,0.11809
5890.47411,0.11778
5892.51446,0.10979
5894.55480,0.10037
5896.59514,0.09331
5898.63549,0.09151
5900.67583,0.09679
5902.71618,0.10475
5904.75652,0.11063
5906.79687,0.11433
5908.83721,0.11694
5910.87755,0.11572
5912.91790,0.11250
5914.95824,0.11145
5916.99859,0.11355
5919.03893,0.11414
5921.07928,0.11110
5923.11962,0.11124
5925.15997,0.11375
5927.20031,0.11412
5929.24065,0.11331
5931.28100,0.10754
5933.32134,0.10118
5935.36169,0.10460
5937.40203,0.11350
5939.44238,0.11720
5941.48272,0.11440
5943.52306,0.11050
5945.56341,0.10864
5947.60375,0.11020
5949.64410,0.12105
5951.68444,0.13280
5953.72479,0.13100
5955.76513,0.11970
5957.80547,0.11079
5959.84582,0.10916
5961.88616,0.11108
5963.92651,0.11173
5965.96685,0.11123
5968.00720,0.11217
5970.04754,0.11117
5972.08789,0.10865
5974.12823,0.10715
5976.16857,0.10285
5978.20892,0.09944
5980.24926,0.10005
5982.28961,0.10043
5984.32995,0.09830
5986.37030,0.09555
5988.41064,0.09428
5990.45098,0.10177
5992.49133,0.11505
5994.53167,0.11820
5996.57202,0.11481
5998.61236,0.11734
6000.65271,0.11631
6002.69305,0.10523
6004.73339,0.09674
6006.77374,0.09351
6008.81408,0.09436
6010.85443,0.10241
6012.89477,0.11077
6014.93512,0.11394
6016.97546,0.11488
6019.01580,0.11369
6021.05615,0.10894
6023.09649,0.10519
6025.13684,0.10951
6027.17718,0.12143
6029.21753,0.13219
6031.25787,0.13467
6033.29822,0.12926
6035.33856,0.12094
6037.37890,0.11354
6039.41925,0.10842
6041.45959,0.10829
6043.49994,0.10944
6045.54028,0.10722
6047.58063,0.10428
6049.62097,0.10392
6051.66131,0.10413
6053.70166,0.10238
6055.74200,0.10400
6057.78235,0.11178
6059.82269,0.11437
6061.86304,0.11283
6063.90338,0.11518
6065.94372,0.11535
6067.98407,0.11374
6070.02441,0.11118
6072.06476,0.10446
6074.10510,0.10559
6076.14545,0.11535
6078.18579,0.11882
6080.22614,0.11598
6082.26648,0.11739
6084.30682,0.12484
6086.34717,0.12570
6088.38751,0.11849
6090.42786,0.11184
6092.46820,0.11050
6094.50855,0.11404
6096.54889,0.11376
6098.58923,0.10881
6100.62958,0.10771
6102.66992,0.11344
6104.71027,0.12135
6106.75061,0.12408
6108.79096,0.12377
6110.83130,0.12717
6112.87164,0.13105
6114.91199,0.13054
6116.95233,0.12564
6118.99268,0.11975
6121.03302,0.11580
6123.07337,0.11510
6125.11371,0.11453
6127.15405,0.11423
6129.19440,0.11374
6131.23474,0.10792
6133.27509,0.10224
6135.31543,0.10501
6137.35578,0.10691
6139.39612,0.10394
6141.43647,0.10707
6143.47681,0.11414
6145.51715,0.11359
6147.55750,0.10668
6149.59784,0.10431
6151.63819,0.10558
6153.67853,0.10602
6155.71888,0.10702
6157.75922,0.10883
6159.79956,0.10774
6161.83991,0.10286
6163.88025,0.10341
6165.92060,0.11345
6167.96094,0.12507
6170.00129,0.12911
6172.04163,0.13048
6174.08197,0.13522
6176.12232,0.13587
6178.16266,0.12713
6180.20301,0.11724
6182.24335,0.11346
6184.28370,0.11145
6186.32404,0.10920
6188.36439,0.10915
6190.40473,0.11108
6192.44507,0.11407
6194.48542,0.11795
6196.52576,0.12432
6198.56611,0.12328
6200.60645,0.11355
6202.64680,0.10740
6204.68714,0.10942
6206.72748,0.11585
6208.76783,0.11851
6210.80817,0.11204
6212.84852,0.10312
6214.88886,0.10084
6216.92921,0.10597
6218.96955,0.11576
6221.00989,0.12335
6223.05024,0.12216
6225.09058,0.11684
6227.13093,0.11198
6229.17127,0.10276
6231.21162,0.09155
6233.25196,0.08919
6235.29231,0.10002
6237.33265,0.11247
6239.37299,0.11461
6241.41334,0.10249
6243.45368,0.08696
6245.49403,0.08842
6247.53437,0.10466
6249.57472,0.11166
6251.61506,0.10373
6253.65540,0.10028
6255.69575,0.10927
6257.73609,0.11591
6259.77644,0.10976
6261.81678,0.10146
6263.85713,0.09703
6265.89747,0.09468
6267.93781,0.09915
6269.97816,0.10054
6272.01850,0.09552
6274.05885,0.10133
6276.09919,0.11582
6278.13954,0.12343
6280.17988,0.11845
6282.22022,0.10907
6284.26057,0.10762
6286.30091,0.11884
6288.34126,0.13358
6290.38160,0.13465
6292.42195,0.12294
6294.46229,0.10711
6296.50264,0.09850
6298.54298,0.10404
6300.58332,0.11377
6302.62367,0.12305
6304.66401,0.12795
6306.70436,0.12441
6308.74470,0.12075
6310.78505,0.11939
6312.82539,0.11176
6314.86573,0.10705
6316.90608,0.11103
6318.94642,0.11103
6320.98677,0.10838
6323.02711,0.11256
6325.06746,0.11585
6327.10780,0.10675
6329.14814,0.09912
6331.18849,0.10835
6333.22883,0.11797
6335.26918,0.11731
6337.30952,0.11438
6339.34987,0.10813
6341.39021,0.10158
6343.43056,0.10484
6345.47090,0.11084
6347.51124,0.11209
6349.55159,0.11457
6351.59193,0.11394
6353.63228,0.10557
6355.67262,0.09662
6357.71297,0.09528
6359.75331,0.10579
6361.79365,0.11523
6363.83400,0.11255
6365.87434,0.11104
6367.91469,0.11942
6369.95503,0.12855
6371.99538,0.13126
6374.03572,0.12726
6376.07606,0.11883
6378.11641,0.10732
6380.15675,0.10058
6382.19710,0.10230
6384.23744,0.10667
6386.27779,0.10813
6388.31813,0.10384
6390.35847,0.10292
6392.39882,0.10977
6394.43916,0.11598
6396.47951,0.12085
6398.51985,0.12454
6400.56020,0.12304
6402.60054,0.11519
6404.64089,0.10616
6406.68123,0.10314
6408.72157,0.10557
6410.76192,0.11055
6412.80226,0.11635
6414.84261,0.12015
6416.88295,0.12105
6418.92330,0.11750
6420.96364,0.11321
6423.00398,0.11548
6425.04433,0.12471
6427.08467,0.12579
6429.12502,0.11124
6431.16536,0.10208
6433.20571,0.10952
6435.24605,0.11857
6437.28639,0.11952
6439.32674,0.11663
6441.36708,0.11412
6443.40743,0.11301
6445.44777,0.10778
6447.48812,0.09844
6449.52846,0.10014
6451.56881,0.11360
6453.60915,0.12316
6455.64949,0.12277
6457.68984,0.11447
6459.73018,0.10627
6461.77053,0.10214
6463.81087,0.10051
6465.85122,0.10078
6467.89156,0.10382
6469.93190,0.10751
6471.97225,0.11111
6474.01259,0.11731
6476.05294,0.12369
6478.09328,0.12974
6480.13363,0.13263
6482.17397,0.12745
6484.21431,0.11888
6486.25466,0.11354
6488.29500,0.10974
6490.33535,0.10487
6492.37569,0.09993
6494.41604,0.09338
6496.45638,0.08998
6498.49672,0.09684
6500.53707,0.10703
6502.57741,0.11594
6504.61776,0.11774
6506.65810,0.11283
6508.69845,0.11562
6510.73879,0.12610
6512.77914,0.13728
6514.81948,0.14074
6516.85982,0.13089
6518.90017,0.11862
6520.94051,0.11042
6522.98086,0.10711
6525.02120,0.11095
6527.06155,0.11804
6529.10189,0.12256
6531.14223,0.11958
6533.18258,0.11319
6535.22292,0.11573
6537.26327,0.12292
6539.30361,0.12582
6541.34396,0.12640
6543.38430,0.12037
6545.42464,0.11439
6547.46499,0.12291
6549.50533,0.13622
6551.54568,0.13642
6553.58602,0.12576
6555.62637,0.11131
6557.66671,0.10226
6559.70706,0.10918
6561.74740,0.12443
6563.78774,0.13476
6565.82809,0.12801
6567.86843,0.10668
6569.90878,0.10028
6571.94912,0.11104
6573.98947,0.11745
6576.02981,0.11462
6578.07015,0.10426
6580.11050,0.09983
6582.15084,0.10436
6584.19119,0.09628
6586.23153,0.09311
6588.27188,0.10662
6590.31222,0.11616
6592.35256,0.11529
6594.39291,0.11276
6596.43325,0.11220
6598.47360,0.11563
6600.51394,0.12752
6602.55429,0.13683
6604.59463,0.13356
6606.63498,0.12891
6608.67532,0.13042
6610.71566,0.12824
6612.75601,0.11398
6614.79635,0.10571
6616.83670,0.11755
6618.87704,0.13609
6620.91739,0.14206
6622.95773,0.13652
6624.99807,0.12979
6627.03842,0.11796
6629.07876,0.10352
6631.11911,0.09914
6633.15945,0.11053
6635.19980,0.13037
6637.24014,0.13143
6639.28048,0.11380
6641.32083,0.10284
6643.36117,0.11291
6645.40152,0.13000
6647.44186,0.13648
6649.48221,0.13680
6651.52255,0.13186
6653.56289,0.12289
6655.60324,0.12264
6657.64358,0.12780
6659.68393,0.12553
6661.72427,0.11894
6663.76462,0.11397
6665.80496,0.11097
6667.84531,0.10654
6669.88565,0.09719
6671.92599,0.08924
6673.96634,0.09339
6676.00668,0.10543
6678.04703,0.11371
6680.08737,0.11555
6682.12772,0.10861
6684.16806,0.09919
6686.20840,0.09907
6688.24875,0.10739
6690.28909,0.11794
6692.32944,0.12322
6694.36978,0.11786
6696.41013,0.10923
6698.45047,0.10527
6700.49081,0.09824
6702.53116,0.09106
6704.57150,0.09212
6706.61185,0.10011
6708.65219,0.10668
6710.69254,0.11068
6712.73288,0.11250
6714.77323,0.10513
6716.81357,0.10442
6718.85391,0.11518
6720.89426,0.12649
6722.93460,0.12898
6724.97495,0.12379
6727.01529,0.11820
6729.05564,0.11572
6731.09598,0.11876
6733.13632,0.11632
6735.17667,0.11574
6737.21701,0.12194
6739.25736,0.12433
6741.29770,0.11939
6743.33805,0.11585
6745.37839,0.11551
6747.41873,0.11231
6749.45908,0.10483
6751.49942,0.09905
6753.53977,0.09803
6755.58011,0.10242
6757.62046,0.11145
6759.66080,0.12224
6761.70114,0.12973
6763.74149,0.13032
6765.78183,0.12786
6767.82218,0.13004
6769.86252,0.13792
6771.90287,0.14018
6773.94321,0.13054
6775.98356,0.11590
6778.02390,0.11145
6780.06424,0.11949
6782.10459,0.12061
6784.14493,0.11481
6786.18528,0.11030
6788.22562,0.09976
6790.26597,0.09027
6792.30631,0.09630
6794.34665,0.11124
6796.38700,0.11717
6798.42734,0.11055
6800.46769,0.10884
6802.50803,0.10985
6804.54838,0.10573
6806.58872,0.10552
6808.62906,0.11104
6810.66941,0.11925
6812.70975,0.12378
6814.75010,0.11643
6816.79044,0.10749
6818.83079,0.10921
6820.87113,0.10899
6822.91148,0.10113
6824.95182,0.10356
6826.99216,0.11295
6829.03251,0.10687
6831.07285,0.09842
6833.11320,0.10278
6835.15354,0.10972
6837.19389,0.11704
6839.23423,0.11428
6841.27457,0.10595
6843.31492,0.11494
6845.35526,0.13097
6847.39561,0.12263
6849.43595,0.10016
6851.47630,0.09590
6853.51664,0.11435
6855.55698,0.13611
6857.59733,0.13988
6859.63767,0.13371
6861.67802,0.13439
6863.71836,0.13029
6865.75871,0.11509
6867.79905,0.10669
6869.83939,0.10801
6871.87974,0.11423
6873.92008,0.11568
6875.96043,0.11270
6878.00077,0.11287
6880.04112,0.12159
6882.08146,0.13067
6884.12181,0.12578
6886.16215,0.11162
6888.20249,0.11371
6890.24284,0.12058
6892.28318,0.11637
6894.32353,0.11152
6896.36387,0.12169
6898.40422,0.13154
6900.44456,0.12065
6902.48490,0.10445
6904.52525,0.10576
6906.56559,0.11922
6908.60594,0.12905
6910.64628,0.12456
6912.68663,0.12292
6914.72697,0.13626
6916.76731,0.14092
6918.80766,0.12727
6920.84800,0.10856
6922.88835,0.09364
6924.92869,0.08950
6926.96904,0.08904
6929.00938,0.09002
6931.04973,0.10659
6933.09007,0.12634
6935.13041,0.13852
6937.17076,0.13497
6939.21110,0.11959
6941.25145,0.11519
6943.29179,0.12709
6945.33214,0.12680
6947.37248,0.11430
6949.41282,0.12595
6951.45317,0.13897
6953.49351,0.12174
6955.53386,0.10751
6957.57420,0.11458
6959.61455,0.11353
6961.65489,0.10931
6963.69523,0.12042
6965.73558,0.13251
6967.77592,0.12345
6969.81627,0.10284
6971.85661,0.10773
6973.89696,0.12734
6975.93730,0.13272
6977.97765,0.12112
6980.01799,0.11729
6982.05833,0.12582
6984.09868,0.13657
6986.13902,0.13916
6988.17937,0.13158
6990.21971,0.12821
6992.26006,0.12888
6994.30040,0.13812
6996.34074,0.14009
6998.38109,0.12158
7000.42143,0.09613
7002.46178,0.08808
7004.50212,0.09660
7006.54247,0.09756
7008.58281,0.08938
7010.62315,0.08419
7012.66350,0.09104
7014.70384,0.09807
7016.74419,0.10013
7018.78453,0.10278
7020.82488,0.10422
7022.86522,0.10945
7024.90556,0.12767
7026.94591,0.14363
7028.98625,0.13459
7031.02660,0.11313
7033.06694,0.10413
7035.10729,0.11331
7037.14763,0.13470
7039.18798,0.14966
7041.22832,0.14510
7043.26866,0.12963
7045.30901,0.12067
7047.34935,0.12085
7049.38970,0.11739
7051.43004,0.11279
7053.47039,0.11352
7055.51073,0.11477
7057.55107,0.12312
7059.59142,0.13713
7061.63176,0.13327
7063.67211,0.11683
7065.71245,0.10826
7067.75280,0.10579
7069.79314,0.10364
7071.83348,0.09876
7073.87383,0.09069
7075.91417,0.07997
7077.95452,0.08085
7079.99486,0.08776
7082.03521,0.08744
7084.07555,0.09877
7086.11590,0.12214
7088.15624,0.12427
7090.19658,0.10651
7092.23693,0.10726
7094.27727,0.12385
7096.31762,0.12418
7098.35796,0.11363
7100.39831,0.11882
7102.43865,0.13578
7104.47899,0.14476
7106.51934,0.14719
7108.55968,0.14804
7110.60003,0.14086
7112.64037,0.14306
7114.68072,0.15590
7116.72106,0.14300
7118.76140,0.11446
7120.80175,0.09802
7122.84209,0.09810
7124.88244,0.09701
7126.92278,0.09770
7128.96313,0.10925
7131.00347,0.11568
7133.04381,0.10918
7135.08416,0.11012
7137.12450,0.11581
7139.16485,0.11121
7141.20519,0.10849
7143.24554,0.12328
7145.28588,0.13309
7147.32623,0.11765
7149.36657,0.11154
7151.40691,0.13506
7153.44726,0.13386
7155.48760,0.11508
7157.52795,0.13134
7159.56829,0.15238
7161.60864,0.13597
7163.64898,0.11123
7165.68932,0.10696
7167.72967,0.12499
7169.77001,0.12914
7171.81036,0.10927
7173.85070,0.08267
7175.89105,0.08497
7177.93139,0.11476
7179.97173,0.14721
7182.01208,0.15903
7184.05242,0.15037
7186.09277,0.13966
7188.13311,0.13864
7190.17346,0.15713
7192.21380,0.17265
7194.25415,0.17172
7196.29449,0.16468
7198.33483,0.16298
7200.37518,0.16395
7202.41552,0.15756
7204.45587,0.14371
7206.49621,0.12680
7208.53656,0.11815
7210.57690,0.13121
7212.61724,0.13148
7214.65759,0.09504
7216.69793,0.07864
7218.73828,0.10098
7220.77862,0.11203
7222.81897,0.11435
7224.85931,0.11583
7226.89965,0.11477
7228.94000,0.11291
7230.98034,0.09381
7233.02069,0.08523
7235.06103,0.09761
7237.10138,0.10835
7239.14172,0.12112
7241.18206,0.13803
7243.22241,0.13642
7245.26275,0.11741
7247.30310,0.11676
7249.34344,0.13727
7251.38379,0.14031
7253.42413,0.11578
7255.46448,0.09160
7257.50482,0.10115
7259.54516,0.09809
7261.58551,0.08230
7263.62585,0.08365
7265.66620,0.12629
7267.70654,0.13782
7269.74689,0.11044
7271.78723,0.06764
7273.82757,0.03946
7275.86792,0.05077
7277.90826,0.08150
7279.94861,0.10154
7281.98895,0.12484
7284.02930,0.14701
7286.06964,0.16032
7288.10998,0.17243
7290.15033,0.15321
7292.19067,0.11166
7294.23102,0.11400
7296.27136,0.12818
7298.31171,0.12648
7300.35205,0.12791
7302.39240,0.12015
7304.43274,0.13811
7306.47308,0.16859
7308.51343,0.17287
7310.55377,0.14717
7312.59412,0.12854
7314.63446,0.14531
7316.67481,0.16132
7318.71515,0.14125
7320.75549,0.10834
7322.79584,0.07189
7324.83618,0.06741
7326.87653,0.08380
7328.91687,0.11850
7330.95722,0.15110
7332.99756,0.18176
7335.03790,0.21730
7337.07825,0.21696
7339.11859,0.16157
7341.15894,0.10839
7343.19928,0.11767
7345.23963,0.15968
7347.27997,0.16421
7349.32032,0.13126
7351.36066,0.10186
7353.40100,0.09279
7355.44135,0.10116
7357.48169,0.11344
7359.52204,0.13261
7361.56238,0.16362
7363.60273,0.17301
7365.64307,0.14242
7367.68341,0.08521
7369.72376,0.05761
7371.76410,0.09301
7373.80445,0.15629
7375.84479,0.18514
7377.88514,0.17117
7379.92548,0.13525
7381.96582,0.10418
7384.00617,0.10966
7386.04651,0.10837
7388.08686,0.11429
7390.12720,0.12906
7392.16755,0.14285
7394.20789,0.14577
7396.24823,0.15030
7398.28858,0.13568
7400.32892,0.10480
7402.36927,0.12471
7404.40961,0.16301
7406.44996,0.16932
7408.49030,0.15339
7410.53065,0.16222
7412.57099,0.15079
7414.61133,0.09321
7416.65168,0.06956
7418.69202,0.09582
7420.73237,0.14463
7422.77271,0.17052
7424.81306,0.16852
7426.85340,0.17089
7428.89374,0.17800
7430.93409,0.17430
7432.97443,0.15900
7435.01478,0.13016
7437.05512,0.08549
7439.09547,0.04916
7441.13581,0.09319
7443.17615,0.17963
7445.21650,0.22401
7447.25684,0.21347
7449.29719,0.17692
7451.33753,0.14787
7453.37788,0.16705
7455.41822,0.18703
7457.45857,0.14604
7459.49891,0.12028
7461.53925,0.16850
7463.57960,0.23425
7465.61994,0.25209
7467.66029,0.22464
7469.70063,0.18201
7471.74098,0.16233
7473.78132,0.17066
7475.82166,0.17153
7477.86201,0.13975
7479.90235,0.12008
7481.94270,0.11233
7483.98304,0.09054
7486.02339,0.07105
7488.06373,0.08561
7490.10407,0.10680
7492.14442,0.11691
7494.18476,0.14028
7496.22511,0.15229
7498.26545,0.10565
7500.30580,0.16780
7502.34614,0.19298
7504.38648,0.14387
7506.42683,0.15155
7508.46717,0.16857
7510.50752,0.15282
7512.54786,0.14679
7514.58821,0.14465
7516.62855,0.13868
7518.66890,0.14443
7520.70924,0.16094
7522.74958,0.17220
7524.78993,0.18644
7526.83027,0.18233
7528.87062,0.16561
7530.91096,0.15851
7532.95131,0.15175
7534.99165,0.17008
7537.03199,0.22478
7539.07234,0.23397
7541.11268,0.15664
7543.15303,0.15145
7545.19337,0.12881
7547.23372,0.08122
7549.27406,0.06263
7551.31440,0.06228
7553.35475,0.02074
7555.39509,0.05721
7557.43544,0.15046
7559.47578,0.22280
7561.51613,0.22574
7563.55647,0.21578
7565.59682,0.21933
7567.63716,0.19806
7569.67750,0.18453
7571.71785,0.14725
7573.75819,0.09495
7575.79854,0.13673
7577.83888,0.18295
7579.87923,0.16508
7581.91957,0.17354
7583.95991,0.16329
7586.00026,0.16493
7588.04060,0.20324
7590.08095,0.22192
7592.12129,0.21352
7594.16164,0.20797
7596.20198,0.21976
7598.24232,0.19984
7600.28267,0.22649
7602.32301,0.24653
7604.36336,0.13514
7606.40370,0.04059
7608.44405,0.07391
7610.48439,0.13659
7612.52473,0.15802
7614.56508,0.12178
7616.60542,0.13089
7618.64577,0.15720
7620.68611,0.16303
7622.72646,0.22027
7624.76680,0.18736
7626.80715,0.10606
7628.84749,0.12228
7630.88783,0.15620
7632.92818,0.19049
7634.96852,0.18701
7637.00887,0.16435
7639.04921,0.15278
7641.08956,0.18876
7643.12990,0.17446
7645.17024,0.15885
7647.21059,0.18566
7649.25093,0.27280
7651.29128,0.23696
7653.33162,0.10491
7655.37197,0.03820
7657.41231,0.08922
7659.45265,0.17711
7661.49300,0.22539
7663.53334,0.23423
7665.57369,0.20582
7667.61403,0.16750
7669.65438,0.17909
7671.69472,0.19893
7673.73507,0.18277
7675.77541,0.16581
7677.81575,0.18152
7679.85610,0.18944
7681.89644,0.14322
7683.93679,0.06384
7685.97713,0.03075
7688.01748,0.06444
7690.05782,0.09376
7692.09816,0.09910
7694.13851,0.05146
7696.17885,0.06805
7698.21920,0.10621
7700.25954,0.05619
7702.29989,0.01308
7704.34023,0.05406
7706.38057,0.12229
7708.42092,0.22972
7710.46126,0.26454
7712.50161,0.17094
7714.54195,0.14376
7716.58230,0.24430
7718.62264,0.29743
7720.66298,0.14308
7722.70333,0.06087
7724.74367,0.02525
7726.78402,0.13538
7728.82436,0.21757
7730.86471,0.22867
7732.90505,0.22515
7734.94540,0.26267
7736.98574,0.20004
7739.02608,0.07183
7741.06643,0.02861
7743.10677,0.02734
7745.14712,0.06599
7747.18746,0.11923
7749.22781,0.14094
7751.26815,0.16769
7753.30849,0.19125
7755.34884,0.19011
7757.38918,0.22548
7759.42953,0.25899
7761.46987,0.19984
7763.51022,0.18853
7765.55056,0.16532
7767.59090,0.18706
7769.63125,0.23341
7771.67159,0.27395
7773.71194,0.21580
7775.75228,0.11718
7777.79263,0.11971
7779.83297,0.20264
7781.87332,0.33252
7783.91366,0.33915
7785.95400,0.29170
7787.99435,0.24550
7790.03469,0.31421
7792.07504,0.37906
7794.11538,0.30204
7796.15573,0.20382
7798.19607,0.15710
7800.23641,0.10028
7802.27676,0.15516
7804.31710,0.14737
7806.35745,0.05193
7808.39779,0.02247
7810.43814,0.11357
7812.47848,0.16057
7814.51882,0.10234
7816.55917,0.13637
7818.59951,0.14946
7820.63986,0.24142
7822.68020,0.19165
7824.72055,0.09760
7826.76089,0.05677
7828.80124,0.03489
7830.84158,0.06418
7832.88192,0.20246
7834.92227,0.31938
7836.96261,0.31639
7839.00296,0.32366
7841.04330,0.38887
7843.08365,0.28457
7845.12399,0.10336
7847.16433,0.08628
7849.20468,0.22252
7851.24502,0.35354
7853.28537,0.38714
7855.32571,0.30980
7857.36606,0.25731
7859.40640,0.22712
7861.44674,0.24972
7863.48709,0.26179
7865.52743,0.20899
7867.56778,0.18120
7869.60812,0.14350
7871.64847,0.05559
7873.68881,0.06050
7875.72915,0.10690
7877.76950,0.15631
7879.80984,0.16367
7881.85019,0.05520
7883.89053,0.02003
7885.93088,0.08191
7887.97122,0.19331
7890.01157,0.17086
7892.05191,0.08521
7894.09225,0.23887
7896.13260,0.17542
7898.17294,0.14170
7900.21329,0.18856
7902.25363,0.19222
7904.29398,0.15188
7906.33432,0.32469
7908.37466,0.30412
7910.41501,0.20837
7912.45535,0.24932
7914.49570,0.27580
7916.53604,0.16759
7918.57639,0.03302
7920.61673,0.06724
7922.65707,0.14868
7924.69742,0.22937
7926.73776,0.18087
7928.77811,0.18708
7930.81845,0.34462
7932.85880,0.43008
7934.89914,0.39473
7936.93949,0.33628
7938.97983,0.27966
7941.02017,0.31653
7943.06052,0.30115
7945.10086,0.14305
7947.14121,0.10196
7949.18155,0.15755
7951.22190,0.10619
7953.26224,0.20104
7955.30258,0.32348
7957.34293,0.24186
7959.38327,0.19874
7961.42362,0.04939
7963.46396,0.15571
7965.50431,0.18831
7967.54465,0.28121
7969.58499,0.38666
7971.62534,0.45474
7973.66568,0.41694
7975.70603,0.14003
7977.74637,0.15572
7979.78672,0.21967
7981.82706,0.16232
7983.86740,0.17011
7985.90775,0.17000
7987.94809,0.12792
7989.98844,0.22424
7992.02878,0.22689
7994.06913,0.10612
7996.10947,0.10373
