499.88436	0.02742
501.92471	0.03789
503.96505	0.19007
506.00540	0.33163
508.04574	0.40339
510.08609	0.40920
512.12643	0.34745
514.16677	0.26445
516.20712	0.33350
518.24746	0.65154
520.28781	1.01688
522.32815	1.30345
524.36850	1.52833
526.40884	1.68208
528.44918	1.75903
530.48953	1.75508
532.52987	1.77896
534.57022	1.79944
536.61056	1.71839
538.65091	1.64303
540.69125	1.73096
542.73159	1.86530
544.77194	1.86389
546.81228	1.79169
548.85263	1.75737
550.89297	1.70113
552.93332	1.61250
554.97366	1.57102
557.01400	1.53651
559.05435	1.45088
561.09469	1.33979
563.13504	1.23563
565.17538	1.12087
567.21573	0.97658
569.25607	0.81747
571.29642	0.66691
573.33676	0.53053
575.37710	0.41123
577.41745	0.31484
579.45779	0.23628
581.49814	0.17444
583.53848	0.13063
585.57883	0.09875
587.61917	0.07767
589.65951	0.06564
591.69986	0.05685
593.74020	0.05279
595.78055	0.05609
597.82089	0.06028
599.86124	0.05977
601.90158	0.06089
603.94192	0.06898
605.98227	0.08023
608.02261	0.08912
610.06296	0.09565
612.10330	0.10353
614.14365	0.11358
616.18399	0.12709
618.22434	0.14479
620.26468	0.16465
622.30502	0.18734
624.34537	0.21304
626.38571	0.24029
628.42606	0.26606
630.46640	0.28603
632.50675	0.30037
634.54709	0.30939
636.58743	0.30795
638.62778	0.29317
640.66812	0.26731
642.70847	0.23526
644.74881	0.20008
646.78916	0.16371
648.82950	0.13125
650.86984	0.10659
652.91019	0.08922
654.95053	0.07779
656.99088	0.07156
659.03122	0.06855
661.07157	0.06654
663.11191	0.06563
665.15226	0.06625
667.19260	0.06829
669.23294	0.07169
671.27329	0.07418
673.31363	0.07582
675.35398	0.07836
677.39432	0.08207
679.43467	0.08597
681.47501	0.08941
683.51535	0.09228
685.55570	0.09496
687.59604	0.09784
689.63639	0.10147
691.67673	0.10580
693.71708	0.10980
695.75742	0.11259
697.79776	0.11498
699.83811	0.11855
701.87845	0.12215
703.91880	0.12482
705.95914	0.12729
707.99949	0.13011
710.03983	0.13373
712.08017	0.13759
714.12052	0.14081
716.16086	0.14352
718.20121	0.14644
720.24155	0.14948
722.28190	0.15270
724.32224	0.15637
726.36259	0.15952
728.40293	0.16242
730.44327	0.16621
732.48362	0.17014
734.52396	0.17388
736.56431	0.17771
738.60465	0.18103
740.64500	0.18422
742.68534	0.18762
744.72568	0.19056
746.76603	0.19375
748.80637	0.19811
750.84672	0.20270
752.88706	0.20706
754.92741	0.21166
756.96775	0.21604
759.00809	0.21961
761.04844	0.22313
763.08878	0.22743
765.12913	0.23171
767.16947	0.23508
769.20982	0.23857
771.25016	0.24372
773.29051	0.24988
775.33085	0.25558
777.37119	0.26100
779.41154	0.26642
781.45188	0.27177
783.49223	0.27757
785.53257	0.28396
787.57292	0.29036
789.61326	0.29676
791.65360	0.30341
793.69395	0.31004
795.73429	0.31649
797.77464	0.32319
799.81498	0.33071
801.85533	0.33914
803.89567	0.34796
805.93601	0.35672
807.97636	0.36567
810.01670	0.37532
812.05705	0.38608
814.09739	0.39827
816.13774	0.41180
818.17808	0.42605
820.21842	0.44116
822.25877	0.45771
824.29911	0.47604
826.33946	0.49732
828.37980	0.52241
830.42015	0.55042
832.46049	0.57971
834.50084	0.60679
836.54118	0.62252
838.58152	0.61473
840.62187	0.57901
842.66221	0.52727
844.70256	0.48261
846.74290	0.46345
848.78325	0.47231
850.82359	0.49932
852.86393	0.53429
854.90428	0.57255
856.94462	0.61373
858.98497	0.65926
861.02531	0.71100
863.06566	0.77106
865.10600	0.84142
867.14634	0.92170
869.18669	1.00690
871.22703	1.08909
873.26738	1.16182
875.30772	1.22324
877.34807	1.27564
879.38841	1.32301
881.42876	1.36796
883.46910	1.41122
885.50944	1.45349
887.54979	1.49589
889.59013	1.53953
891.63048	1.58558
893.67082	1.63553
895.71117	1.69020
897.75151	1.74838
899.79185	1.80643
901.83220	1.85918
903.87254	1.90199
905.91289	1.93343
907.95323	1.95533
909.99358	1.97087
912.03392	1.98227
914.07426	1.99042
916.11461	1.99629
918.15495	2.00067
920.19530	2.00384
922.23564	2.00588
924.27599	2.00656
926.31633	2.00560
928.35667	2.00293
930.39702	1.99855
932.43736	1.99239
934.47771	1.98440
936.51805	1.97465
938.55840	1.96285
940.59874	1.94836
942.63909	1.93080
944.67943	1.90912
946.71977	1.88133
948.76012	1.84509
950.80046	1.79666
952.84081	1.72785
954.88115	1.62561
956.92150	1.48461
958.96184	1.32763
961.00218	1.19367
963.04253	1.09915
965.08287	1.03403
967.12322	0.98630
969.16356	0.95063
971.20391	0.92480
973.24425	0.90922
975.28459	0.90789
977.32494	0.92551
979.36528	0.96160
981.40563	1.00522
983.44597	1.03601
985.48632	1.03332
987.52666	0.98791
989.56701	0.90798
991.60735	0.81270
993.64769	0.71658
995.68804	0.62326
997.72838	0.53219
999.76873	0.44446
1001.80907	0.36299
1003.84942	0.29059
1005.88976	0.22948
1007.93010	0.18084
1009.97045	0.14392
1012.01079	0.11647
1014.05114	0.09622
1016.09148	0.08177
1018.13183	0.07183
1020.17217	0.06496
1022.21251	0.06046
1024.25286	0.05820
1026.29320	0.05800
1028.33355	0.05947
1030.37389	0.06248
1032.41424	0.06746
1034.45458	0.07500
1036.49493	0.08557
1038.53527	0.09973
1040.57561	0.11874
1042.61596	0.14438
1044.65630	0.17875
1046.69665	0.22320
1048.73699	0.27574
1050.77734	0.33121
1052.81768	0.38389
1054.85802	0.42936
1056.89837	0.46562
1058.93871	0.49256
1060.97906	0.51106
1063.01940	0.52240
1065.05975	0.52697
1067.10009	0.52339
1069.14043	0.50900
1071.18078	0.48096
1073.22112	0.43778
1075.26147	0.38120
1077.30181	0.31653
1079.34216	0.25098
1081.38250	0.19145
1083.42284	0.14264
1085.46319	0.10572
1087.50353	0.07915
1089.54388	0.06049
1091.58422	0.04749
1093.62457	0.03871
1095.66491	0.03258
1097.70526	0.02778
1099.74560	0.02410
1101.78594	0.02149
1103.82629	0.01944
1105.86663	0.01771
1107.90698	0.01641
1109.94732	0.01558
1111.98767	0.01510
1114.02801	0.01496
1116.06835	0.01491
1118.10870	0.01466
1120.14904	0.01453
1122.18939	0.01481
1124.22973	0.01511
1126.27008	0.01519
1128.31042	0.01555
1130.35076	0.01633
1132.39111	0.01683
1134.43145	0.01686
1136.47180	0.01717
1138.51214	0.01790
1140.55249	0.01859
1142.59283	0.01924
1144.63318	0.01997
1146.67352	0.02072
1148.71386	0.02133
1150.75421	0.02172
1152.79455	0.02205
1154.83490	0.02251
1156.87524	0.02320
1158.91559	0.02409
1160.95593	0.02489
1162.99627	0.02562
1165.03662	0.02631
1167.07696	0.02673
1169.11731	0.02716
1171.15765	0.02793
1173.19800	0.02875
1175.23834	0.02930
1177.27868	0.02963
1179.31903	0.03001
1181.35937	0.03048
1183.39972	0.03097
1185.44006	0.03169
1187.48041	0.03256
1189.52075	0.03317
1191.56109	0.03358
1193.60144	0.03405
1195.64178	0.03466
1197.68213	0.03523
1199.72247	0.03562
1201.76282	0.03602
1203.80316	0.03659
1205.84351	0.03716
1207.88385	0.03752
1209.92419	0.03780
1211.96454	0.03826
1214.00488	0.03891
1216.04523	0.03979
1218.08557	0.04062
1220.12592	0.04095
1222.16626	0.04113
1224.20660	0.04147
1226.24695	0.04194
1228.28729	0.04248
1230.32764	0.04287
1232.36798	0.04319
1234.40833	0.04367
1236.44867	0.04415
1238.48901	0.04436
1240.52936	0.04446
1242.56970	0.04479
1244.61005	0.04539
1246.65039	0.04599
1248.69074	0.04631
1250.73108	0.04664
1252.77143	0.04721
1254.81177	0.04776
1256.85211	0.04824
1258.89246	0.04885
1260.93280	0.04958
1262.97315	0.05033
1265.01349	0.05078
1267.05384	0.05098
1269.09418	0.05130
1271.13452	0.05193
1273.17487	0.05267
1275.21521	0.05321
1277.25556	0.05361
1279.29590	0.05404
1281.33625	0.05443
1283.37659	0.05478
1285.41693	0.05514
1287.45728	0.05535
1289.49762	0.05524
1291.53797	0.05511
1293.57831	0.05520
1295.61866	0.05549
1297.65900	0.05594
1299.69934	0.05639
1301.73969	0.05692
1303.78003	0.05748
1305.82038	0.05770
1307.86072	0.05798
1309.90107	0.05866
1311.94141	0.05925
1313.98176	0.05951
1316.02210	0.05979
1318.06244	0.06010
1320.10279	0.06021
1322.14313	0.06044
1324.18348	0.06102
1326.22382	0.06158
1328.26417	0.06189
1330.30451	0.06208
1332.34485	0.06231
1334.38520	0.06246
1336.42554	0.06260
1338.46589	0.06290
1340.50623	0.06314
1342.54658	0.06341
1344.58692	0.06397
1346.62726	0.06453
1348.66761	0.06470
1350.70795	0.06462
1352.74830	0.06470
1354.78864	0.06485
1356.82899	0.06494
1358.86933	0.06533
1360.90968	0.06605
1362.95002	0.06660
1364.99036	0.06681
1367.03071	0.06707
1369.07105	0.06763
1371.11140	0.06818
1373.15174	0.06843
1375.19209	0.06841
1377.23243	0.06836
1379.27277	0.06853
1381.31312	0.06894
1383.35346	0.06937
1385.39381	0.06971
1387.43415	0.06999
1389.47450	0.07029
1391.51484	0.07078
1393.55518	0.07145
1395.59553	0.07212
1397.63587	0.07254
1399.67622	0.07263
1401.71656	0.07265
1403.75691	0.07308
1405.79725	0.07374
1407.83760	0.07413
1409.87794	0.07425
1411.91828	0.07413
1413.95863	0.07402
1415.99897	0.07426
1418.03932	0.07472
1420.07966	0.07520
1422.12001	0.07557
1424.16035	0.07576
1426.20069	0.07571
1428.24104	0.07567
1430.28138	0.07606
1432.32173	0.07662
1434.36207	0.07690
1436.40242	0.07691
1438.44276	0.07690
1440.48310	0.07709
1442.52345	0.07731
1444.56379	0.07726
1446.60414	0.07715
1448.64448	0.07743
1450.68483	0.07785
1452.72517	0.07807
1454.76551	0.07820
1456.80586	0.07831
1458.84620	0.07844
1460.88655	0.07871
1462.92689	0.07902
1464.96724	0.07918
1467.00758	0.07904
1469.04793	0.07904
1471.08827	0.07946
1473.12861	0.07997
1475.16896	0.08034
1477.20930	0.08079
1479.24965	0.08125
1481.28999	0.08168
1483.33034	0.08172
1485.37068	0.08129
1487.41102	0.08115
1489.45137	0.08140
1491.49171	0.08136
1493.53206	0.08123
1495.57240	0.08144
1497.61275	0.08204
1499.65309	0.08236
1501.69343	0.08240
1503.73378	0.08259
1505.77412	0.08295
1507.81447	0.08302
1509.85481	0.08269
1511.89516	0.08251
1513.93550	0.08285
1515.97585	0.08369
1518.01619	0.08448
1520.05653	0.08500
1522.09688	0.08547
1524.13722	0.08575
1526.17757	0.08586
1528.21791	0.08598
1530.25826	0.08632
1532.29860	0.08698
1534.33894	0.08748
1536.37929	0.08743
1538.41963	0.08741
1540.45998	0.08796
1542.50032	0.08808
1544.54067	0.08772
1546.58101	0.08755
1548.62135	0.08755
1550.66170	0.08763
1552.70204	0.08780
1554.74239	0.08820
1556.78273	0.08882
1558.82308	0.08989
1560.86342	0.09035
1562.90376	0.08976
1564.94411	0.08932
1566.98445	0.08931
1569.02480	0.08932
1571.06514	0.08961
1573.10549	0.09000
1575.14583	0.09006
1577.18618	0.09007
1579.22652	0.09020
1581.26686	0.09013
1583.30721	0.08992
1585.34755	0.08979
1587.38790	0.08990
1589.42824	0.09031
1591.46859	0.09075
1593.50893	0.09100
1595.54927	0.09114
1597.58962	0.09115
1599.62996	0.09094
1601.67031	0.09066
1603.71065	0.09068
1605.75100	0.09089
1607.79134	0.09085
1609.83168	0.09091
1611.87203	0.09141
1613.91237	0.09180
1615.95272	0.09211
1617.99306	0.09258
1620.03341	0.09276
1622.07375	0.09285
1624.11410	0.09311
1626.15444	0.09347
1628.19478	0.09386
1630.23513	0.09416
1632.27547	0.09429
1634.31582	0.09443
1636.35616	0.09469
1638.39651	0.09467
1640.43685	0.09442
1642.47719	0.09423
1644.51754	0.09431
1646.55788	0.09499
1648.59823	0.09576
1650.63857	0.09597
1652.67892	0.09605
1654.71926	0.09577
1656.75960	0.09524
1658.79995	0.09492
1660.84029	0.09470
1662.88064	0.09464
1664.92098	0.09483
1666.96133	0.09509
1669.00167	0.09528
1671.04201	0.09533
1673.08236	0.09541
1675.12270	0.09551
1677.16305	0.09547
1679.20339	0.09544
1681.24374	0.09556
1683.28408	0.09584
1685.32443	0.09597
1687.36477	0.09576
1689.40511	0.09573
1691.44546	0.09606
1693.48580	0.09632
1695.52615	0.09623
1697.56649	0.09617
1699.60684	0.09661
1701.64718	0.09711
1703.68752	0.09709
1705.72787	0.09675
1707.76821	0.09659
1709.80856	0.09684
1711.84890	0.09716
1713.88925	0.09726
1715.92959	0.09725
1717.96993	0.09706
1720.01028	0.09683
1722.05062	0.09683
1724.09097	0.09700
1726.13131	0.09712
1728.17166	0.09711
1730.21200	0.09709
1732.25235	0.09719
1734.29269	0.09763
1736.33303	0.09785
1738.37338	0.09781
1740.41372	0.09806
1742.45407	0.09845
1744.49441	0.09865
1746.53476	0.09870
1748.57510	0.09885
1750.61544	0.09898
1752.65579	0.09897
1754.69613	0.09909
1756.73648	0.09930
1758.77682	0.09920
1760.81717	0.09906
1762.85751	0.09924
1764.89785	0.09925
1766.93820	0.09931
1768.97854	0.09977
1771.01889	0.10010
1773.05923	0.09995
1775.09958	0.09976
1777.13992	0.09960
1779.18027	0.09946
1781.22061	0.09941
1783.26095	0.09933
1785.30130	0.09944
1787.34164	0.09965
1789.38199	0.09969
1791.42233	0.09976
1793.46268	0.10007
1795.50302	0.10022
1797.54336	0.10024
1799.58371	0.10057
1801.62405	0.10091
1803.66440	0.10091
1805.70474	0.10073
1807.74509	0.10044
1809.78543	0.10046
1811.82577	0.10092
1813.86612	0.10127
1815.90646	0.10139
1817.94681	0.10145
1819.98715	0.10148
1822.02750	0.10153
1824.06784	0.10154
1826.10818	0.10144
1828.14853	0.10116
1830.18887	0.10104
1832.22922	0.10145
1834.26956	0.10185
1836.30991	0.10192
1838.35025	0.10184
1840.39060	0.10182
1842.43094	0.10184
1844.47128	0.10199
1846.51163	0.10219
1848.55197	0.10218
1850.59232	0.10202
1852.63266	0.10204
1854.67301	0.10228
1856.71335	0.10243
1858.75369	0.10260
1860.79404	0.10301
1862.83438	0.10326
1864.87473	0.10323
1866.91507	0.10335
1868.95542	0.10372
1870.99576	0.10385
1873.03610	0.10363
1875.07645	0.10348
1877.11679	0.10352
1879.15714	0.10346
1881.19748	0.10338
1883.23783	0.10349
1885.27817	0.10364
1887.31852	0.10378
1889.35886	0.10379
1891.39920	0.10382
1893.43955	0.10413
1895.47989	0.10432
1897.52024	0.10435
1899.56058	0.10457
1901.60093	0.10486
1903.64127	0.10494
1905.68161	0.10464
1907.72196	0.10431
1909.76230	0.10456
1911.80265	0.10503
1913.84299	0.10524
1915.88334	0.10530
1917.92368	0.10534
1919.96402	0.10525
1922.00437	0.10510
1924.04471	0.10517
1926.08506	0.10534
1928.12540	0.10536
1930.16575	0.10535
1932.20609	0.10556
1934.24643	0.10591
1936.28678	0.10615
1938.32712	0.10623
1940.36747	0.10626
1942.40781	0.10620
1944.44816	0.10622
1946.48850	0.10648
1948.52885	0.10667
1950.56919	0.10660
1952.60953	0.10647
1954.64988	0.10652
1956.69022	0.10669
1958.73057	0.10681
1960.77091	0.10687
1962.81126	0.10704
1964.85160	0.10728
1966.89194	0.10736
1968.93229	0.10717
1970.97263	0.10697
1973.01298	0.10696
1975.05332	0.10709
1977.09367	0.10744
1979.13401	0.10776
1981.17435	0.10770
1983.21470	0.10764
1985.25504	0.10776
1987.29539	0.10785
1989.33573	0.10771
1991.37608	0.10760
1993.41642	0.10789
1995.45677	0.10817
1997.49711	0.10822
1999.53745	0.10843
2001.57780	0.10860
2003.61814	0.10840
2005.65849	0.10813
2007.69883	0.10807
2009.73918	0.10828
2011.77952	0.10861
2013.81986	0.10875
2015.86021	0.10869
2017.90055	0.10862
2019.94090	0.10853
2021.98124	0.10852
2024.02159	0.10877
2026.06193	0.10904
2028.10227	0.10912
2030.14262	0.10922
2032.18296	0.10942
2034.22331	0.10949
2036.26365	0.10943
2038.30400	0.10951
2040.34434	0.10994
2042.38468	0.11047
2044.42503	0.11057
2046.46537	0.11015
2048.50572	0.10980
2050.54606	0.11001
2052.58641	0.11045
2054.62675	0.11054
2056.66710	0.11034
2058.70744	0.11024
2060.74778	0.11023
2062.78813	0.11018
2064.82847	0.11017
2066.86882	0.11026
2068.90916	0.11035
2070.94951	0.11044
2072.98985	0.11051
2075.03019	0.11059
2077.07054	0.11080
2079.11088	0.11104
2081.15123	0.11105
2083.19157	0.11093
2085.23192	0.11101
2087.27226	0.11134
2089.31260	0.11168
2091.35295	0.11167
2093.39329	0.11151
2095.43364	0.11160
2097.47398	0.11165
2099.51433	0.11149
2101.55467	0.11147
2103.59502	0.11151
2105.63536	0.11155
2107.67570	0.11170
2109.71605	0.11181
2111.75639	0.11192
2113.79674	0.11216
2115.83708	0.11244
2117.87743	0.11262
2119.91777	0.11256
2121.95811	0.11227
2123.99846	0.11213
2126.03880	0.11245
2128.07915	0.11287
2130.11949	0.11284
2132.15984	0.11256
2134.20018	0.11247
2136.24052	0.11251
2138.28087	0.11253
2140.32121	0.11264
2142.36156	0.11293
2144.40190	0.11314
2146.44225	0.11315
2148.48259	0.11322
2150.52294	0.11356
2152.56328	0.11387
2154.60362	0.11387
2156.64397	0.11377
2158.68431	0.11369
2160.72466	0.11355
2162.76500	0.11349
2164.80535	0.11363
2166.84569	0.11388
2168.88603	0.11398
2170.92638	0.11379
2172.96672	0.11339
2175.00707	0.11308
2177.04741	0.11327
2179.08776	0.11369
2181.12810	0.11374
2183.16844	0.11357
2185.20879	0.11367
2187.24913	0.11396
2189.28948	0.11412
2191.32982	0.11412
2193.37017	0.11410
2195.41051	0.11400
2197.45085	0.11404
2199.49120	0.11429
2201.53154	0.11443
2203.57189	0.11444
2205.61223	0.11455
2207.65258	0.11481
2209.69292	0.11518
2211.73327	0.11545
2213.77361	0.11539
2215.81395	0.11507
2217.85430	0.11477
2219.89464	0.11470
2221.93499	0.11476
2223.97533	0.11474
2226.01568	0.11459
2228.05602	0.11445
2230.09636	0.11447
2232.13671	0.11451
2234.17705	0.11452
2236.21740	0.11462
2238.25774	0.11485
2240.29809	0.11511
2242.33843	0.11529
2244.37877	0.11534
2246.41912	0.11524
2248.45946	0.11511
2250.49981	0.11506
2252.54015	0.11500
2254.58050	0.11514
2256.62084	0.11556
2258.66119	0.11595
2260.70153	0.11609
2262.74187	0.11585
2264.78222	0.11556
2266.82256	0.11560
2268.86291	0.11564
2270.90325	0.11547
2272.94360	0.11537
2274.98394	0.11550
2277.02428	0.11571
2279.06463	0.11567
2281.10497	0.11547
2283.14532	0.11554
2285.18566	0.11581
2287.22601	0.11604
2289.26635	0.11629
2291.30669	0.11660
2293.34704	0.11676
2295.38738	0.11659
2297.42773	0.11629
2299.46807	0.11630
2301.50842	0.11659
2303.54876	0.11671
2305.58910	0.11636
2307.62945	0.11593
2309.66979	0.11592
2311.71014	0.11624
2313.75048	0.11663
2315.79083	0.11703
2317.83117	0.11729
2319.87152	0.11722
2321.91186	0.11698
2323.95220	0.11692
2325.99255	0.11709
2328.03289	0.11744
2330.07324	0.11784
2332.11358	0.11798
2334.15393	0.11750
2336.19427	0.11667
2338.23461	0.11656
2340.27496	0.11729
2342.31530	0.11745
2344.35565	0.11676
2346.39599	0.11633
2348.43634	0.11623
2350.47668	0.11599
2352.51702	0.11585
2354.55737	0.11641
2356.59771	0.11762
2358.63806	0.11869
2360.67840	0.11893
2362.71875	0.11855
2364.75909	0.11806
2366.79944	0.11784
2368.83978	0.11835
2370.88012	0.11895
2372.92047	0.11853
2374.96081	0.11780
2377.00116	0.11754
2379.04150	0.11756
2381.08185	0.11775
2383.12219	0.11784
2385.16253	0.11774
2387.20288	0.11762
2389.24322	0.11743
2391.28357	0.11727
2393.32391	0.11751
2395.36426	0.11798
2397.40460	0.11801
2399.44494	0.11786
2401.48529	0.11792
2403.52563	0.11794
2405.56598	0.11786
2407.60632	0.11779
2409.64667	0.11787
2411.68701	0.11817
2413.72735	0.11843
2415.76770	0.11835
2417.80804	0.11811
2419.84839	0.11813
2421.88873	0.11833
2423.92908	0.11834
2425.96942	0.11816
2428.00977	0.11792
2430.05011	0.11770
2432.09045	0.11770
2434.13080	0.11788
2436.17114	0.11807
2438.21149	0.11830
2440.25183	0.11862
2442.29218	0.11881
2444.33252	0.11876
2446.37286	0.11865
2448.41321	0.11849
2450.45355	0.11828
2452.49390	0.11812
2454.53424	0.11799
2456.57459	0.11810
2458.61493	0.11846
2460.65527	0.11865
2462.69562	0.11866
2464.73596	0.11869
2466.77631	0.11862
2468.81665	0.11844
2470.85700	0.11837
2472.89734	0.11848
2474.93769	0.11850
2476.97803	0.11848
2479.01837	0.11864
2481.05872	0.11878
2483.09906	0.11875
2485.13941	0.11883
2487.17975	0.11905
2489.22010	0.11906
2491.26044	0.11895
2493.30078	0.11889
2495.34113	0.11864
2497.38147	0.11806
2499.42182	0.11785
2501.46216	0.11832
2503.50251	0.11866
2505.54285	0.11860
2507.58319	0.11859
2509.62354	0.11872
2511.66388	0.11871
2513.70423	0.11856
2515.74457	0.11863
2517.78492	0.11878
2519.82526	0.11870
2521.86561	0.11865
2523.90595	0.11876
2525.94629	0.11891
2527.98664	0.11899
2530.02698	0.11872
2532.06733	0.11841
2534.10767	0.11844
2536.14802	0.11859
2538.18836	0.11890
2540.22870	0.11932
2542.26905	0.11964
2544.30939	0.11982
2546.34974	0.11964
2548.39008	0.11934
2550.43043	0.11940
2552.47077	0.11937
2554.51111	0.11906
2556.55146	0.11905
2558.59180	0.11939
2560.63215	0.11953
2562.67249	0.11948
2564.71284	0.11965
2566.75318	0.12000
2568.79352	0.12022
2570.83387	0.12000
2572.87421	0.11946
2574.91456	0.11913
2576.95490	0.11924
2578.99525	0.11956
2581.03559	0.11982
2583.07594	0.11989
2585.11628	0.11972
2587.15662	0.11954
2589.19697	0.11963
2591.23731	0.11992
2593.27766	0.12009
2595.31800	0.12002
2597.35835	0.11993
2599.39869	0.11985
2601.43903	0.11970
2603.47938	0.11956
2605.51972	0.11936
2607.56007	0.11921
2609.60041	0.11929
2611.64076	0.11955
2613.68110	0.11985
2615.72144	0.11996
2617.76179	0.11987
2619.80213	0.11986
2621.84248	0.12002
2623.88282	0.12005
2625.92317	0.11998
2627.96351	0.12013
2630.00386	0.12005
2632.04420	0.11959
2634.08454	0.11948
2636.12489	0.11971
2638.16523	0.11978
2640.20558	0.11970
2642.24592	0.11966
2644.28627	0.11973
2646.32661	0.11987
2648.36695	0.12008
2650.40730	0.12024
2652.44764	0.11998
2654.48799	0.11952
2656.52833	0.11948
2658.56868	0.11971
2660.60902	0.11985
2662.64936	0.11989
2664.68971	0.11986
2666.73005	0.11972
2668.77040	0.11953
2670.81074	0.11949
2672.85109	0.11976
2674.89143	0.12012
2676.93177	0.12016
2678.97212	0.11999
2681.01246	0.11984
2683.05281	0.11964
2685.09315	0.11953
2687.13350	0.11956
2689.17384	0.11949
2691.21419	0.11938
2693.25453	0.11949
2695.29487	0.11954
2697.33522	0.11938
2699.37556	0.11956
2701.41591	0.12001
2703.45625	0.12008
2705.49660	0.11991
2707.53694	0.12003
2709.57728	0.12020
2711.61763	0.12021
2713.65797	0.12023
2715.69832	0.12013
2717.73866	0.11971
2719.77901	0.11950
2721.81935	0.11967
2723.85969	0.11959
2725.90004	0.11940
2727.94038	0.11948
2729.98073	0.11938
2732.02107	0.11913
2734.06142	0.11914
2736.10176	0.11929
2738.14211	0.11953
2740.18245	0.11977
2742.22279	0.11979
2744.26314	0.11961
2746.30348	0.11927
2748.34383	0.11885
2750.38417	0.11883
2752.42452	0.11936
2754.46486	0.11975
2756.50520	0.11979
2758.54555	0.11979
2760.58589	0.11985
2762.62624	0.11995
2764.66658	0.11995
2766.70693	0.11989
2768.74727	0.11984
2770.78761	0.11957
2772.82796	0.11946
2774.86830	0.11966
2776.90865	0.11982
2778.94899	0.11996
2780.98934	0.11991
2783.02968	0.11972
2785.07002	0.11971
2787.11037	0.11947
2789.15071	0.11892
2791.19106	0.11865
2793.23140	0.11870
2795.27175	0.11895
2797.31209	0.11941
2799.35244	0.12006
2801.39278	0.12048
2803.43312	0.12025
2805.47347	0.11963
2807.51381	0.11910
2809.55416	0.11901
2811.59450	0.11920
2813.63485	0.11930
2815.67519	0.11918
2817.71553	0.11889
2819.75588	0.11888
2821.79622	0.11910
2823.83657	0.11917
2825.87691	0.11919
2827.91726	0.11901
2829.95760	0.11854
2831.99794	0.11848
2834.03829	0.11897
2836.07863	0.11917
2838.11898	0.11904
2840.15932	0.11902
2842.19967	0.11873
2844.24001	0.11826
2846.28036	0.11802
2848.32070	0.11800
2850.36104	0.11823
2852.40139	0.11841
2854.44173	0.11854
2856.48208	0.11871
2858.52242	0.11855
2860.56277	0.11820
2862.60311	0.11801
2864.64345	0.11789
2866.68380	0.11791
2868.72414	0.11816
2870.76449	0.11856
2872.80483	0.11861
2874.84518	0.11821
2876.88552	0.11826
2878.92586	0.11879
2880.96621	0.11896
2883.00655	0.11862
2885.04690	0.11823
2887.08724	0.11816
2889.12759	0.11835
2891.16793	0.11858
2893.20828	0.11889
2895.24862	0.11922
2897.28896	0.11917
2899.32931	0.11889
2901.36965	0.11876
2903.41000	0.11869
2905.45034	0.11863
2907.49069	0.11850
2909.53103	0.11853
2911.57137	0.11895
2913.61172	0.11937
2915.65206	0.11934
2917.69241	0.11902
2919.73275	0.11890
2921.77310	0.11912
2923.81344	0.11921
2925.85378	0.11884
2927.89413	0.11841
2929.93447	0.11824
2931.97482	0.11823
2934.01516	0.11840
2936.05551	0.11880
2938.09585	0.11900
2940.13619	0.11895
2942.17654	0.11905
2944.21688	0.11902
2946.25723	0.11872
2948.29757	0.11860
2950.33792	0.11883
2952.37826	0.11902
2954.41861	0.11877
2956.45895	0.11845
2958.49929	0.11854
2960.53964	0.11873
2962.57998	0.11873
2964.62033	0.11880
2966.66067	0.11940
2968.70102	0.12027
2970.74136	0.12061
2972.78170	0.12033
2974.82205	0.12028
2976.86239	0.12073
2978.90274	0.12099
2980.94308	0.12114
2982.98343	0.12166
2985.02377	0.12211
2987.06411	0.12209
2989.10446	0.12202
2991.14480	0.12198
2993.18515	0.12184
2995.22549	0.12208
2997.26584	0.12241
2999.30618	0.12239
3001.34653	0.12247
3003.38687	0.12255
3005.42721	0.12231
3007.46756	0.12203
3009.50790	0.12195
3011.54825	0.12219
3013.58859	0.12257
3015.62894	0.12267
3017.66928	0.12265
3019.70962	0.12273
3021.74997	0.12270
3023.79031	0.12250
3025.83066	0.12210
3027.87100	0.12170
3029.91135	0.12178
3031.95169	0.12211
3033.99203	0.12210
3036.03238	0.12179
3038.07272	0.12147
3040.11307	0.12145
3042.15341	0.12172
3044.19376	0.12191
3046.23410	0.12198
3048.27444	0.12214
3050.31479	0.12238
3052.35513	0.12244
3054.39548	0.12204
3056.43582	0.12175
3058.47617	0.12218
3060.51651	0.12286
3062.55686	0.12294
3064.59720	0.12230
3066.63754	0.12177
3068.67789	0.12185
3070.71823	0.12217
3072.75858	0.12242
3074.79892	0.12276
3076.83927	0.12319
3078.87961	0.12325
3080.91995	0.12292
3082.96030	0.12266
3085.00064	0.12259
3087.04099	0.12260
3089.08133	0.12249
3091.12168	0.12220
3093.16202	0.12211
3095.20236	0.12248
3097.24271	0.12281
3099.28305	0.12261
3101.32340	0.12220
3103.36374	0.12246
3105.40409	0.12298
3107.44443	0.12279
3109.48478	0.12237
3111.52512	0.12215
3113.56546	0.12200
3115.60581	0.12200
3117.64615	0.12215
3119.68650	0.12239
3121.72684	0.12267
3123.76719	0.12299
3125.80753	0.12329
3127.84787	0.12315
3129.88822	0.12276
3131.92856	0.12265
3133.96891	0.12257
3136.00925	0.12267
3138.04960	0.12315
3140.08994	0.12366
3142.13028	0.12390
3144.17063	0.12374
3146.21097	0.12357
3148.25132	0.12363
3150.29166	0.12339
3152.33201	0.12263
3154.37235	0.12205
3156.41269	0.12219
3158.45304	0.12269
3160.49338	0.12284
3162.53373	0.12252
3164.57407	0.12217
3166.61442	0.12219
3168.65476	0.12226
3170.69511	0.12191
3172.73545	0.12178
3174.77579	0.12242
3176.81614	0.12309
3178.85648	0.12301
3180.89683	0.12266
3182.93717	0.12272
3184.97752	0.12267
3187.01786	0.12224
3189.05820	0.12206
3191.09855	0.12215
3193.13889	0.12200
3195.17924	0.12168
3197.21958	0.12167
3199.25993	0.12206
3201.30027	0.12216
3203.34061	0.12176
3205.38096	0.12142
3207.42130	0.12142
3209.46165	0.12160
3211.50199	0.12184
3213.54234	0.12206
3215.58268	0.12217
3217.62303	0.12240
3219.66337	0.12258
3221.70371	0.12220
3223.74406	0.12180
3225.78440	0.12185
3227.82475	0.12186
3229.86509	0.12161
3231.90544	0.12144
3233.94578	0.12156
3235.98612	0.12166
3238.02647	0.12161
3240.06681	0.12181
3242.10716	0.12191
3244.14750	0.12159
3246.18785	0.12146
3248.22819	0.12187
3250.26853	0.12241
3252.30888	0.12260
3254.34922	0.12247
3256.38957	0.12236
3258.42991	0.12220
3260.47026	0.12169
3262.51060	0.12132
3264.55095	0.12149
3266.59129	0.12195
3268.63163	0.12229
3270.67198	0.12217
3272.71232	0.12184
3274.75267	0.12165
3276.79301	0.12168
3278.83336	0.12205
3280.87370	0.12255
3282.91404	0.12250
3284.95439	0.12181
3286.99473	0.12130
3289.03508	0.12149
3291.07542	0.12178
3293.11577	0.12169
3295.15611	0.12155
3297.19645	0.12156
3299.23680	0.12174
3301.27714	0.12205
3303.31749	0.12228
3305.35783	0.12213
3307.39818	0.12176
3309.43852	0.12164
3311.47886	0.12187
3313.51921	0.12226
3315.55955	0.12238
3317.59990	0.12210
3319.64024	0.12191
3321.68059	0.12203
3323.72093	0.12227
3325.76128	0.12230
3327.80162	0.12198
3329.84196	0.12174
3331.88231	0.12202
3333.92265	0.12256
3335.96300	0.12302
3338.00334	0.12300
3340.04369	0.12253
3342.08403	0.12205
3344.12437	0.12187
3346.16472	0.12215
3348.20506	0.12267
3350.24541	0.12284
3352.28575	0.12226
3354.32610	0.12117
3356.36644	0.12066
3358.40678	0.12130
3360.44713	0.12216
3362.48747	0.12258
3364.52782	0.12280
3366.56816	0.12272
3368.60851	0.12252
3370.64885	0.12267
3372.68920	0.12295
3374.72954	0.12297
3376.76988	0.12271
3378.81023	0.12244
3380.85057	0.12238
3382.89092	0.12219
3384.93126	0.12192
3386.97161	0.12187
3389.01195	0.12208
3391.05229	0.12239
3393.09264	0.12247
3395.13298	0.12231
3397.17333	0.12209
3399.21367	0.12210
3401.25402	0.12246
3403.29436	0.12269
3405.33470	0.12247
3407.37505	0.12205
3409.41539	0.12203
3411.45574	0.12239
3413.49608	0.12258
3415.53643	0.12246
3417.57677	0.12234
3419.61711	0.12263
3421.65746	0.12314
3423.69780	0.12324
3425.73815	0.12285
3427.77849	0.12249
3429.81884	0.12220
3431.85918	0.12197
3433.89953	0.12203
3435.93987	0.12221
3437.98021	0.12246
3440.02056	0.12275
3442.06090	0.12284
3444.10125	0.12283
3446.14159	0.12273
3448.18194	0.12232
3450.22228	0.12219
3452.26262	0.12256
3454.30297	0.12299
3456.34331	0.12315
3458.38366	0.12282
3460.42400	0.12246
3462.46435	0.12255
3464.50469	0.12280
3466.54503	0.12280
3468.58538	0.12249
3470.62572	0.12255
3472.66607	0.12321
3474.70641	0.12373
3476.74676	0.12368
3478.78710	0.12340
3480.82745	0.12338
3482.86779	0.12393
3484.90813	0.12443
3486.94848	0.12423
3488.98882	0.12379
3491.02917	0.12346
3493.06951	0.12320
3495.10986	0.12281
3497.15020	0.12227
3499.19054	0.12205
3501.23089	0.12224
3503.27123	0.12267
3505.31158	0.12310
3507.35192	0.12340
3509.39227	0.12352
3511.43261	0.12330
3513.47295	0.12316
3515.51330	0.12345
3517.55364	0.12385
3519.59399	0.12410
3521.63433	0.12417
3523.67468	0.12382
3525.71502	0.12342
3527.75536	0.12345
3529.79571	0.12372
3531.83605	0.12389
3533.87640	0.12378
3535.91674	0.12367
3537.95709	0.12387
3539.99743	0.12431
3542.03778	0.12473
3544.07812	0.12503
3546.11846	0.12537
3548.15881	0.12532
3550.19915	0.12482
3552.23950	0.12433
3554.27984	0.12406
3556.32019	0.12424
3558.36053	0.12455
3560.40087	0.12435
3562.44122	0.12415
3564.48156	0.12436
3566.52191	0.12413
3568.56225	0.12338
3570.60260	0.12303
3572.64294	0.12322
3574.68328	0.12379
3576.72363	0.12447
3578.76397	0.12488
3580.80432	0.12510
3582.84466	0.12531
3584.88501	0.12555
3586.92535	0.12574
3588.96570	0.12565
3591.00604	0.12534
3593.04638	0.12507
3595.08673	0.12519
3597.12707	0.12562
3599.16742	0.12592
3601.20776	0.12557
3603.24811	0.12474
3605.28845	0.12455
3607.32879	0.12534
3609.36914	0.12596
3611.40948	0.12584
3613.44983	0.12580
3615.49017	0.12601
3617.53052	0.12603
3619.57086	0.12597
3621.61120	0.12600
3623.65155	0.12581
3625.69189	0.12552
3627.73224	0.12566
3629.77258	0.12633
3631.81293	0.12637
3633.85327	0.12595
3635.89362	0.12608
3637.93396	0.12669
3639.97430	0.12686
3642.01465	0.12667
3644.05499	0.12716
3646.09534	0.12805
3648.13568	0.12823
3650.17603	0.12752
3652.21637	0.12637
3654.25671	0.12566
3656.29706	0.12599
3658.33740	0.12653
3660.37775	0.12654
3662.41809	0.12640
3664.45844	0.12641
3666.49878	0.12624
3668.53912	0.12579
3670.57947	0.12575
3672.61981	0.12597
3674.66016	0.12656
3676.70050	0.12733
3678.74085	0.12723
3680.78119	0.12673
3682.82153	0.12656
3684.86188	0.12680
3686.90222	0.12676
3688.94257	0.12643
3690.98291	0.12665
3693.02326	0.12718
3695.06360	0.12749
3697.10395	0.12768
3699.14429	0.12761
3701.18463	0.12663
3703.22498	0.12551
3705.26532	0.12512
3707.30567	0.12497
3709.34601	0.12516
3711.38636	0.12610
3713.42670	0.12718
3715.46704	0.12770
3717.50739	0.12752
3719.54773	0.12701
3721.58808	0.12693
3723.62842	0.12702
3725.66877	0.12657
3727.70911	0.12605
3729.74945	0.12630
3731.78980	0.12698
3733.83014	0.12712
3735.87049	0.12704
3737.91083	0.12735
3739.95118	0.12741
3741.99152	0.12740
3744.03187	0.12802
3746.07221	0.12876
3748.11255	0.12881
3750.15290	0.12839
3752.19324	0.12794
3754.23359	0.12786
3756.27393	0.12787
3758.31428	0.12798
3760.35462	0.12824
3762.39496	0.12804
3764.43531	0.12747
3766.47565	0.12719
3768.51600	0.12704
3770.55634	0.12670
3772.59669	0.12663
3774.63703	0.12691
3776.67737	0.12740
3778.71772	0.12775
3780.75806	0.12733
3782.79841	0.12659
3784.83875	0.12631
3786.87910	0.12678
3788.91944	0.12797
3790.95978	0.12908
3793.00013	0.12931
3795.04047	0.12908
3797.08082	0.12871
3799.12116	0.12775
3801.16151	0.12699
3803.20185	0.12711
3805.24220	0.12726
3807.28254	0.12738
3809.32288	0.12730
3811.36323	0.12681
3813.40357	0.12647
3815.44392	0.12699
3817.48426	0.12775
3819.52461	0.12787
3821.56495	0.12797
3823.60529	0.12807
3825.64564	0.12772
3827.68598	0.12730
3829.72633	0.12739
3831.76667	0.12785
3833.80702	0.12809
3835.84736	0.12827
3837.88770	0.12884
3839.92805	0.12913
3841.96839	0.12865
3844.00874	0.12793
3846.04908	0.12773
3848.08943	0.12792
3850.12977	0.12780
3852.17012	0.12726
3854.21046	0.12718
3856.25080	0.12750
3858.29115	0.12738
3860.33149	0.12730
3862.37184	0.12748
3864.41218	0.12764
3866.45253	0.12786
3868.49287	0.12857
3870.53321	0.12915
3872.57356	0.12845
3874.61390	0.12741
3876.65425	0.12672
3878.69459	0.12619
3880.73494	0.12609
3882.77528	0.12617
3884.81562	0.12616
3886.85597	0.12625
3888.89631	0.12660
3890.93666	0.12719
3892.97700	0.12740
3895.01735	0.12706
3897.05769	0.12655
3899.09803	0.12638
3901.13838	0.12695
3903.17872	0.12771
3905.21907	0.12833
3907.25941	0.12844
3909.29976	0.12792
3911.34010	0.12723
3913.38045	0.12672
3915.42079	0.12696
3917.46113	0.12790
3919.50148	0.12828
3921.54182	0.12804
3923.58217	0.12756
3925.62251	0.12687
3927.66286	0.12695
3929.70320	0.12789
3931.74354	0.12835
3933.78389	0.12799
3935.82423	0.12762
3937.86458	0.12741
3939.90492	0.12730
3941.94527	0.12739
3943.98561	0.12764
3946.02595	0.12785
3948.06630	0.12788
3950.10664	0.12774
3952.14699	0.12732
3954.18733	0.12673
3956.22768	0.12647
3958.26802	0.12675
3960.30837	0.12749
3962.34871	0.12845
3964.38905	0.12876
3966.42940	0.12801
3968.46974	0.12714
3970.51009	0.12702
3972.55043	0.12727
3974.59078	0.12746
3976.63112	0.12755
3978.67146	0.12744
3980.71181	0.12712
3982.75215	0.12702
3984.79250	0.12709
3986.83284	0.12690
3988.87319	0.12713
3990.91353	0.12780
3992.95387	0.12795
3994.99422	0.12771
3997.03456	0.12747
3999.07491	0.12740
4001.11525	0.12758
4003.15560	0.12785
4005.19594	0.12816
4007.23629	0.12824
4009.27663	0.12776
4011.31697	0.12722
4013.35732	0.12745
4015.39766	0.12804
4017.43801	0.12810
4019.47835	0.12764
4021.51870	0.12735
4023.55904	0.12706
4025.59938	0.12641
4027.63973	0.12606
4029.68007	0.12632
4031.72042	0.12692
4033.76076	0.12741
4035.80111	0.12736
4037.84145	0.12725
4039.88179	0.12755
4041.92214	0.12766
4043.96248	0.12753
4046.00283	0.12793
4048.04317	0.12858
4050.08352	0.12844
4052.12386	0.12773
4054.16420	0.12783
4056.20455	0.12857
4058.24489	0.12840
4060.28524	0.12746
4062.32558	0.12688
4064.36593	0.12679
4066.40627	0.12730
4068.44662	0.12802
4070.48696	0.12803
4072.52730	0.12798
4074.56765	0.12823
4076.60799	0.12798
4078.64834	0.12756
4080.68868	0.12779
4082.72903	0.12829
4084.76937	0.12800
4086.80971	0.12682
4088.85006	0.12656
4090.89040	0.12792
4092.93075	0.12877
4094.97109	0.12830
4097.01144	0.12782
4099.05178	0.12746
4101.09212	0.12677
4103.13247	0.12624
4105.17281	0.12621
4107.21316	0.12634
4109.25350	0.12670
4111.29385	0.12736
4113.33419	0.12767
4115.37454	0.12749
4117.41488	0.12751
4119.45522	0.12806
4121.49557	0.12865
4123.53591	0.12848
4125.57626	0.12779
4127.61660	0.12767
4129.65695	0.12821
4131.69729	0.12849
4133.73763	0.12809
4135.77798	0.12770
4137.81832	0.12764
4139.85867	0.12771
4141.89901	0.12783
4143.93936	0.12779
4145.97970	0.12763
4148.02004	0.12751
4150.06039	0.12769
4152.10073	0.12863
4154.14108	0.12946
4156.18142	0.12913
4158.22177	0.12828
4160.26211	0.12760
4162.30245	0.12727
4164.34280	0.12767
4166.38314	0.12840
4168.42349	0.12840
4170.46383	0.12787
4172.50418	0.12738
4174.54452	0.12720
4176.58487	0.12773
4178.62521	0.12787
4180.66555	0.12711
4182.70590	0.12685
4184.74624	0.12696
4186.78659	0.12674
4188.82693	0.12694
4190.86728	0.12752
4192.90762	0.12734
4194.94796	0.12674
4196.98831	0.12657
4199.02865	0.12670
4201.06900	0.12707
4203.10934	0.12726
4205.14969	0.12698
4207.19003	0.12692
4209.23037	0.12714
4211.27072	0.12707
4213.31106	0.12678
4215.35141	0.12654
4217.39175	0.12636
4219.43210	0.12647
4221.47244	0.12704
4223.51279	0.12807
4225.55313	0.12885
4227.59347	0.12840
4229.63382	0.12753
4231.67416	0.12734
4233.71451	0.12717
4235.75485	0.12679
4237.79520	0.12710
4239.83554	0.12786
4241.87588	0.12836
4243.91623	0.12879
4245.95657	0.12867
4247.99692	0.12758
4250.03726	0.12668
4252.07761	0.12693
4254.11795	0.12782
4256.15829	0.12831
4258.19864	0.12816
4260.23898	0.12785
4262.27933	0.12788
4264.31967	0.12820
4266.36002	0.12868
4268.40036	0.12899
4270.44070	0.12860
4272.48105	0.12818
4274.52139	0.12832
4276.56174	0.12826
4278.60208	0.12805
4280.64243	0.12867
4282.68277	0.12951
4284.72312	0.12987
4286.76346	0.13002
4288.80380	0.12950
4290.84415	0.12876
4292.88449	0.12849
4294.92484	0.12838
4296.96518	0.12841
4299.00553	0.12829
4301.04587	0.12811
4303.08621	0.12858
4305.12656	0.12882
4307.16690	0.12811
4309.20725	0.12743
4311.24759	0.12729
4313.28794	0.12769
4315.32828	0.12840
4317.36862	0.12873
4319.40897	0.12849
4321.44931	0.12821
4323.48966	0.12841
4325.53000	0.12894
4327.57035	0.12908
4329.61069	0.12828
4331.65104	0.12718
4333.69138	0.12674
4335.73172	0.12729
4337.77207	0.12835
4339.81241	0.12862
4341.85276	0.12782
4343.89310	0.12728
4345.93345	0.12743
4347.97379	0.12735
4350.01413	0.12645
4352.05448	0.12569
4354.09482	0.12630
4356.13517	0.12718
4358.17551	0.12703
4360.21586	0.12682
4362.25620	0.12726
4364.29654	0.12767
4366.33689	0.12772
4368.37723	0.12789
4370.41758	0.12811
4372.45792	0.12764
4374.49827	0.12662
4376.53861	0.12620
4378.57896	0.12656
4380.61930	0.12737
4382.65964	0.12835
4384.69999	0.12872
4386.74033	0.12842
4388.78068	0.12783
4390.82102	0.12711
4392.86137	0.12712
4394.90171	0.12795
4396.94205	0.12847
4398.98240	0.12840
4401.02274	0.12803
4403.06309	0.12785
4405.10343	0.12799
4407.14378	0.12770
4409.18412	0.12719
4411.22446	0.12746
4413.26481	0.12842
4415.30515	0.12880
4417.34550	0.12810
4419.38584	0.12740
4421.42619	0.12739
4423.46653	0.12773
4425.50687	0.12785
4427.54722	0.12777
4429.58756	0.12787
4431.62791	0.12771
4433.66825	0.12745
4435.70860	0.12823
4437.74894	0.12963
4439.78929	0.12984
4441.82963	0.12880
4443.86997	0.12799
4445.91032	0.12771
4447.95066	0.12726
4449.99101	0.12674
4452.03135	0.12699
4454.07170	0.12784
4456.11204	0.12826
4458.15238	0.12843
4460.19273	0.12895
4462.23307	0.12939
4464.27342	0.12941
4466.31376	0.12920
4468.35411	0.12887
4470.39445	0.12861
4472.43479	0.12835
4474.47514	0.12814
4476.51548	0.12831
4478.55583	0.12827
4480.59617	0.12803
4482.63652	0.12810
4484.67686	0.12791
4486.71721	0.12726
4488.75755	0.12712
4490.79789	0.12773
4492.83824	0.12776
4494.87858	0.12712
4496.91893	0.12720
4498.95927	0.12805
4500.99962	0.12863
4503.03996	0.12847
4505.08030	0.12803
4507.12065	0.12798
4509.16099	0.12856
4511.20134	0.12939
4513.24168	0.12985
4515.28203	0.12990
4517.32237	0.12920
4519.36271	0.12816
4521.40306	0.12844
4523.44340	0.12918
4525.48375	0.12847
4527.52409	0.12746
4529.56444	0.12757
4531.60478	0.12796
4533.64512	0.12795
4535.68547	0.12806
4537.72581	0.12796
4539.76616	0.12718
4541.80650	0.12689
4543.84685	0.12771
4545.88719	0.12864
4547.92754	0.12914
4549.96788	0.12956
4552.00822	0.13012
4554.04857	0.13027
4556.08891	0.12996
4558.12926	0.13048
4560.16960	0.13140
4562.20995	0.13071
4564.25029	0.12895
4566.29063	0.12812
4568.33098	0.12836
4570.37132	0.12844
4572.41167	0.12797
4574.45201	0.12755
4576.49236	0.12761
4578.53270	0.12808
4580.57304	0.12842
4582.61339	0.12811
4584.65373	0.12720
4586.69408	0.12662
4588.73442	0.12720
4590.77477	0.12793
4592.81511	0.12789
4594.85546	0.12770
4596.89580	0.12765
4598.93614	0.12724
4600.97649	0.12625
4603.01683	0.12585
4605.05718	0.12717
4607.09752	0.12850
4609.13787	0.12889
4611.17821	0.12949
4613.21855	0.12967
4615.25890	0.12842
4617.29924	0.12767
4619.33959	0.12880
4621.37993	0.12991
4623.42028	0.12973
4625.46062	0.12874
4627.50096	0.12791
4629.54131	0.12853
4631.58165	0.12935
4633.62200	0.12816
4635.66234	0.12656
4637.70269	0.12646
4639.74303	0.12630
4641.78337	0.12599
4643.82372	0.12694
4645.86406	0.12815
4647.90441	0.12820
4649.94475	0.12796
4651.98510	0.12821
4654.02544	0.12811
4656.06579	0.12811
4658.10613	0.12860
4660.14647	0.12861
4662.18682	0.12798
4664.22716	0.12730
4666.26751	0.12745
4668.30785	0.12846
4670.34820	0.12917
4672.38854	0.12942
4674.42888	0.12987
4676.46923	0.12962
4678.50957	0.12820
4680.54992	0.12721
4682.59026	0.12782
4684.63061	0.12879
4686.67095	0.12894
4688.71129	0.12893
4690.75164	0.12881
4692.79198	0.12825
4694.83233	0.12814
4696.87267	0.12873
4698.91302	0.12894
4700.95336	0.12850
4702.99371	0.12794
4705.03405	0.12771
4707.07439	0.12765
4709.11474	0.12798
4711.15508	0.12915
4713.19543	0.12979
4715.23577	0.12913
4717.27612	0.12798
4719.31646	0.12748
4721.35680	0.12802
4723.39715	0.12829
4725.43749	0.12713
4727.47784	0.12568
4729.51818	0.12582
4731.55853	0.12693
4733.59887	0.12798
4735.63921	0.12957
4737.67956	0.13051
4739.71990	0.12905
4741.76025	0.12709
4743.80059	0.12675
4745.84094	0.12759
4747.88128	0.12902
4749.92163	0.12990
4751.96197	0.12937
4754.00231	0.12855
4756.04266	0.12849
4758.08300	0.12836
4760.12335	0.12780
4762.16369	0.12789
4764.20404	0.12822
4766.24438	0.12816
4768.28472	0.12894
4770.32507	0.13070
4772.36541	0.13116
4774.40576	0.12931
4776.44610	0.12743
4778.48645	0.12755
4780.52679	0.12836
4782.56713	0.12798
4784.60748	0.12708
4786.64782	0.12696
4788.68817	0.12782
4790.72851	0.12895
4792.76886	0.12893
4794.80920	0.12806
4796.84954	0.12826
4798.88989	0.12889
4800.93023	0.12902
4802.97058	0.12910
4805.01092	0.12887
4807.05127	0.12831
4809.09161	0.12762
4811.13196	0.12758
4813.17230	0.12850
4815.21264	0.12932
4817.25299	0.12955
4819.29333	0.12916
4821.33368	0.12858
4823.37402	0.12803
4825.41437	0.12766
4827.45471	0.12769
4829.49505	0.12755
4831.53540	0.12809
4833.57574	0.12964
4835.61609	0.13070
4837.65643	0.13131
4839.69678	0.13050
4841.73712	0.12788
4843.77746	0.12668
4845.81781	0.12801
4847.85815	0.12975
4849.89850	0.13047
4851.93884	0.13085
4853.97919	0.13097
4856.01953	0.12891
4858.05988	0.12608
4860.10022	0.12604
4862.14056	0.12778
4864.18091	0.12868
4866.22125	0.12876
4868.26160	0.12962
4870.30194	0.13117
4872.34229	0.13135
4874.38263	0.13001
4876.42297	0.12833
4878.46332	0.12698
4880.50366	0.12733
4882.54401	0.12918
4884.58435	0.12971
4886.62470	0.12921
4888.66504	0.12929
4890.70538	0.12836
4892.74573	0.12701
4894.78607	0.12765
4896.82642	0.12938
4898.86676	0.13081
4900.90711	0.13134
4902.94745	0.13039
4904.98779	0.12887
4907.02814	0.12732
4909.06848	0.12587
4911.10883	0.12608
4913.14917	0.12784
4915.18952	0.12996
4917.22986	0.13172
4919.27021	0.13116
4921.31055	0.12874
4923.35089	0.12776
4925.39124	0.12827
4927.43158	0.12821
4929.47193	0.12751
4931.51227	0.12675
4933.55262	0.12623
4935.59296	0.12675
4937.63330	0.12757
4939.67365	0.12707
4941.71399	0.12643
4943.75434	0.12622
4945.79468	0.12622
4947.83503	0.12864
4949.87537	0.13146
4951.91571	0.13035
4953.95606	0.12792
4955.99640	0.12900
4958.03675	0.13221
4960.07709	0.13313
4962.11744	0.13209
4964.15778	0.13179
4966.19813	0.13160
4968.23847	0.13046
4970.27881	0.12982
4972.31916	0.12991
4974.35950	0.12911
4976.39985	0.12728
4978.44019	0.12670
4980.48054	0.12914
4982.52088	0.13265
4984.56122	0.13386
4986.60157	0.13278
4988.64191	0.13163
4990.68226	0.13084
4992.72260	0.13063
4994.76295	0.13085
4996.80329	0.12980
4998.84363	0.12846
5000.88398	0.12910
5002.92432	0.13068
5004.96467	0.13167
5007.00501	0.13154
5009.04536	0.13073
5011.08570	0.13098
5013.12604	0.13140
5015.16639	0.12985
5017.20673	0.12808
5019.24708	0.12742
5021.28742	0.12651
5023.32777	0.12541
5025.36811	0.12551
5027.40846	0.12594
5029.44880	0.12474
5031.48914	0.12530
5033.52949	0.13038
5035.56983	0.13520
5037.61018	0.13465
5039.65052	0.12985
5041.69087	0.12744
5043.73121	0.12940
5045.77155	0.13084
5047.81190	0.13058
5049.85224	0.12956
5051.89259	0.12814
5053.93293	0.12808
5055.97328	0.12938
5058.01362	0.13018
5060.05396	0.13123
5062.09431	0.13355
5064.13465	0.13510
5066.17500	0.13393
5068.21534	0.13077
5070.25569	0.12826
5072.29603	0.12737
5074.33638	0.12804
5076.37672	0.13016
5078.41706	0.13040
5080.45741	0.12656
5082.49775	0.12248
5084.53810	0.12339
5086.57844	0.12896
5088.61879	0.13231
5090.65913	0.13276
5092.69947	0.13443
5094.73982	0.13320
5096.78016	0.12930
5098.82051	0.12755
5100.86085	0.12590
5102.90120	0.12338
5104.94154	0.12194
5106.98188	0.12199
5109.02223	0.12273
5111.06257	0.12367
5113.10292	0.12295
5115.14326	0.12195
5117.18361	0.12434
5119.22395	0.12808
5121.26430	0.13051
5123.30464	0.13167
5125.34498	0.13033
5127.38533	0.12853
5129.42567	0.12981
5131.46602	0.13232
5133.50636	0.13318
5135.54671	0.13154
5137.58705	0.12977
5139.62739	0.12919
5141.66774	0.12914
5143.70808	0.13103
5145.74843	0.13334
5147.78877	0.13151
5149.82912	0.12666
5151.86946	0.12607
5153.90980	0.12913
5155.95015	0.13023
5157.99049	0.12972
5160.03084	0.13079
5162.07118	0.13338
5164.11153	0.13420
5166.15187	0.13260
5168.19221	0.12864
5170.23256	0.12513
5172.27290	0.12731
5174.31325	0.13248
5176.35359	0.13448
5178.39394	0.13231
5180.43428	0.12927
5182.47463	0.12961
5184.51497	0.13064
5186.55531	0.12807
5188.59566	0.12440
5190.63600	0.12401
5192.67635	0.12671
5194.71669	0.12798
5196.75704	0.12719
5198.79738	0.12646
5200.83772	0.12716
5202.87807	0.13037
5204.91841	0.13364
5206.95876	0.13157
5208.99910	0.12457
5211.03945	0.12152
5213.07979	0.12355
5215.12013	0.12529
5217.16048	0.12670
5219.20082	0.12787
5221.24117	0.12781
5223.28151	0.12809
5225.32186	0.13067
5227.36220	0.13336
5229.40255	0.13046
5231.44289	0.12590
5233.48323	0.12570
5235.52358	0.12911
5237.56392	0.13024
5239.60427	0.12754
5241.64461	0.12725
5243.68496	0.12909
5245.72530	0.13115
5247.76564	0.13403
5249.80599	0.13319
5251.84633	0.13246
5253.88668	0.13581
5255.92702	0.13638
5257.96737	0.12970
5260.00771	0.12277
5262.04805	0.12536
5264.08840	0.13315
5266.12874	0.13369
5268.16909	0.12959
5270.20943	0.12823
5272.24978	0.12778
5274.29012	0.12713
5276.33046	0.12774
5278.37081	0.12668
5280.41115	0.12626
5282.45150	0.13161
5284.49184	0.13502
5286.53219	0.13230
5288.57253	0.13056
5290.61288	0.13371
5292.65322	0.13903
5294.69356	0.14147
5296.73391	0.13938
5298.77425	0.13532
5300.81460	0.13261
5302.85494	0.12863
5304.89529	0.12302
5306.93563	0.12180
5308.97597	0.12382
5311.01632	0.12569
5313.05666	0.12631
5315.09701	0.12433
5317.13735	0.12178
5319.17770	0.12185
5321.21804	0.12396
5323.25838	0.12708
5325.29873	0.13162
5327.33907	0.13646
5329.37942	0.13541
5331.41976	0.12890
5333.46011	0.12746
5335.50045	0.13258
5337.54080	0.13597
5339.58114	0.13494
5341.62148	0.13228
5343.66183	0.13010
5345.70217	0.12967
5347.74252	0.13265
5349.78286	0.13741
5351.82321	0.14164
5353.86355	0.14242
5355.90389	0.13602
5357.94424	0.12939
5359.98458	0.12770
5362.02493	0.12849
5364.06527	0.13326
5366.10562	0.13765
5368.14596	0.13600
5370.18630	0.13363
5372.22665	0.13249
5374.26699	0.13078
5376.30734	0.13099
5378.34768	0.13500
5380.38803	0.14032
5382.42837	0.13984
5384.46871	0.13303
5386.50906	0.12893
5388.54940	0.13167
5390.58975	0.13427
5392.63009	0.13220
5394.67044	0.13053
5396.71078	0.13210
5398.75113	0.13317
5400.79147	0.13201
5402.83181	0.13264
5404.87216	0.13613
5406.91250	0.14081
5408.95285	0.14561
5410.99319	0.14355
5413.03354	0.13334
5415.07388	0.12570
5417.11422	0.12502
5419.15457	0.12584
5421.19491	0.12681
5423.23526	0.12843
5425.27560	0.12764
5427.31595	0.12619
5429.35629	0.12682
5431.39663	0.12647
5433.43698	0.12797
5435.47732	0.13031
5437.51767	0.12681
5439.55801	0.12427
5441.59836	0.12737
5443.63870	0.12659
5445.67905	0.12209
5447.71939	0.12202
5449.75973	0.12307
5451.80008	0.11962
5453.84042	0.11575
5455.88077	0.11550
5457.92111	0.11895
5459.96146	0.12811
5462.00180	0.13401
5464.04214	0.12481
5466.08249	0.11193
5468.12283	0.11440
5470.16318	0.12708
5472.20352	0.13415
5474.24387	0.13724
5476.28421	0.13865
5478.32455	0.13786
5480.36490	0.13764
5482.40524	0.13630
5484.44559	0.13639
5486.48593	0.14037
5488.52628	0.14031
5490.56662	0.13033
5492.60697	0.12368
5494.64731	0.12666
5496.68765	0.12894
5498.72800	0.12996
5500.76834	0.12753
5502.80869	0.11956
5504.84903	0.11709
5506.88938	0.12128
5508.92972	0.12648
5510.97006	0.13427
5513.01041	0.13842
5515.05075	0.13484
5517.09110	0.13081
5519.13144	0.13110
5521.17179	0.13428
5523.21213	0.13664
5525.25247	0.13831
5527.29282	0.13840
5529.33316	0.13235
5531.37351	0.12581
5533.41385	0.12723
5535.45420	0.13312
5537.49454	0.13145
5539.53488	0.12621
5541.57523	0.12749
5543.61557	0.13299
5545.65592	0.13469
5547.69626	0.12872
5549.73661	0.12113
5551.77695	0.12110
5553.81730	0.12712
5555.85764	0.13327
5557.89798	0.13681
5559.93833	0.13291
5561.97867	0.12483
5564.01902	0.12394
5566.05936	0.13067
5568.09971	0.13263
5570.14005	0.13077
5572.18039	0.13201
5574.22074	0.12640
5576.26108	0.11561
5578.30143	0.11855
5580.34177	0.12973
5582.38212	0.13191
5584.42246	0.13165
5586.46280	0.13691
5588.50315	0.13903
5590.54349	0.13640
5592.58384	0.13592
5594.62418	0.13433
5596.66453	0.13396
5598.70487	0.13694
5600.74522	0.13706
5602.78556	0.13441
5604.82590	0.12951
5606.86625	0.12859
5608.90659	0.13485
5610.94694	0.13973
5612.98728	0.13497
5615.02763	0.12362
5617.06797	0.12058
5619.10831	0.13100
5621.14866	0.13798
5623.18900	0.13391
5625.22935	0.13008
5627.26969	0.13070
5629.31004	0.13179
5631.35038	0.12681
5633.39072	0.11980
5635.43107	0.12422
5637.47141	0.13608
5639.51176	0.14358
5641.55210	0.14436
5643.59245	0.13757
5645.63279	0.13206
5647.67313	0.13264
5649.71348	0.12989
5651.75382	0.12776
5653.79417	0.13097
5655.83451	0.13226
5657.87486	0.13140
5659.91520	0.12672
5661.95555	0.11719
5663.99589	0.11340
5666.03623	0.12091
5668.07658	0.12820
5670.11692	0.12849
5672.15727	0.12792
5674.19761	0.13002
5676.23796	0.13221
5678.27830	0.13292
5680.31864	0.13430
5682.35899	0.13523
5684.39933	0.13494
5686.43968	0.13383
5688.48002	0.13040
5690.52037	0.12767
5692.56071	0.12835
5694.60105	0.13137
5696.64140	0.13433
5698.68174	0.13946
5700.72209	0.14589
5702.76243	0.14272
5704.80278	0.13191
5706.84312	0.12907
5708.88347	0.13261
5710.92381	0.12922
5712.96415	0.11911
5715.00450	0.11289
5717.04484	0.12059
5719.08519	0.13609
5721.12553	0.14134
5723.16588	0.13582
5725.20622	0.13314
5727.24656	0.14023
5729.28691	0.14976
5731.32725	0.15024
5733.36760	0.14135
5735.40794	0.13050
5737.44829	0.12535
5739.48863	0.12861
5741.52897	0.13322
5743.56932	0.13408
5745.60966	0.13286
5747.65001	0.12966
5749.69035	0.12605
5751.73070	0.12612
5753.77104	0.12842
5755.81138	0.12901
5757.85173	0.12903
5759.89207	0.12755
5761.93242	0.12501
5763.97276	0.12639
5766.01311	0.13045
5768.05345	0.12946
5770.09380	0.12588
5772.13414	0.12574
5774.17448	0.12602
5776.21483	0.12573
5778.25517	0.12842
5780.29552	0.13247
5782.33586	0.13095
5784.37621	0.12688
5786.41655	0.12760
5788.45689	0.13126
5790.49724	0.13381
5792.53758	0.13609
5794.57793	0.13383
5796.61827	0.12690
5798.65862	0.12431
5800.69896	0.12446
5802.73930	0.12450
5804.77965	0.12445
5806.81999	0.12613
5808.86034	0.13416
5810.90068	0.14229
5812.94103	0.14762
5814.98137	0.14846
5817.02172	0.13849
5819.06206	0.13225
5821.10240	0.13531
5823.14275	0.13693
5825.18309	0.13504
5827.22344	0.12797
5829.26378	0.11819
5831.30413	0.11660
5833.34447	0.12245
5835.38481	0.12681
5837.42516	0.12944
5839.46550	0.12744
5841.50585	0.12006
5843.54619	0.12090
5845.58654	0.13327
5847.62688	0.14438
5849.66722	0.14445
5851.70757	0.13936
5853.74791	0.13649
5855.78826	0.13868
5857.82860	0.14560
5859.86895	0.15000
5861.90929	0.14527
5863.94964	0.13714
5865.98998	0.13061
5868.03032	0.12490
5870.07067	0.12695
5872.11101	0.13409
5874.15136	0.13565
5876.19170	0.13634
5878.23205	0.13649
5880.27239	0.13563
5882.31273	0.14197
5884.35308	0.14409
5886.39342	0.13653
5888.43377	0.12761
5890.47411	0.12226
5892.51446	0.12494
5894.55480	0.13414
5896.59514	0.14165
5898.63549	0.14336
5900.67583	0.13952
5902.71618	0.13650
5904.75652	0.13797
5906.79687	0.13794
5908.83721	0.13411
5910.87755	0.12974
5912.91790	0.12778
5914.95824	0.13331
5916.99859	0.14241
5919.03893	0.14482
5921.07928	0.14104
5923.11962	0.13728
5925.15997	0.13458
5927.20031	0.13245
5929.24065	0.13673
5931.28100	0.14154
5933.32134	0.13658
5935.36169	0.12714
5937.40203	0.12526
5939.44238	0.13317
5941.48272	0.14129
5943.52306	0.14074
5945.56341	0.13499
5947.60375	0.13305
5949.64410	0.13542
5951.68444	0.13550
5953.72479	0.13015
5955.76513	0.12482
5957.80547	0.12386
5959.84582	0.12222
5961.88616	0.12046
5963.92651	0.12174
5965.96685	0.12542
5968.00720	0.13215
5970.04754	0.13861
5972.08789	0.14106
5974.12823	0.13560
5976.16857	0.12769
5978.20892	0.12815
5980.24926	0.13174
5982.28961	0.13220
5984.32995	0.13201
5986.37030	0.12842
5988.41064	0.12287
5990.45098	0.12509
5992.49133	0.13256
5994.53167	0.13717
5996.57202	0.13744
5998.61236	0.13163
6000.65271	0.12312
6002.69305	0.12092
6004.73339	0.12596
6006.77374	0.13204
6008.81408	0.13710
6010.85443	0.14335
6012.89477	0.14617
6014.93512	0.14033
6016.97546	0.13132
6019.01580	0.12518
6021.05615	0.12419
6023.09649	0.12864
6025.13684	0.13660
6027.17718	0.14790
6029.21753	0.15718
6031.25787	0.15268
6033.29822	0.13591
6035.33856	0.12477
6037.37890	0.12640
6039.41925	0.13119
6041.45959	0.13596
6043.49994	0.14061
6045.54028	0.14466
6047.58063	0.14559
6049.62097	0.13779
6051.66131	0.12700
6053.70166	0.12456
6055.74200	0.13022
6057.78235	0.13255
6059.82269	0.12749
6061.86304	0.12331
6063.90338	0.12251
6065.94372	0.12729
6067.98407	0.13774
6070.02441	0.14585
6072.06476	0.14529
6074.10510	0.13759
6076.14545	0.13373
6078.18579	0.13319
6080.22614	0.12685
6082.26648	0.12302
6084.30682	0.12669
6086.34717	0.12910
6088.38751	0.13174
6090.42786	0.13505
6092.46820	0.13421
6094.50855	0.13806
6096.54889	0.14253
6098.58923	0.13321
6100.62958	0.11987
6102.66992	0.11609
6104.71027	0.12138
6106.75061	0.13064
6108.79096	0.13691
6110.83130	0.13916
6112.87164	0.13930
6114.91199	0.13393
6116.95233	0.13087
6118.99268	0.13903
6121.03302	0.14795
6123.07337	0.14673
6125.11371	0.13812
6127.15405	0.12732
6129.19440	0.11567
6131.23474	0.10760
6133.27509	0.11291
6135.31543	0.12581
6137.35578	0.12977
6139.39612	0.12299
6141.43647	0.11468
6143.47681	0.11320
6145.51715	0.12036
6147.55750	0.12366
6149.59784	0.12215
6151.63819	0.12833
6153.67853	0.13553
6155.71888	0.13353
6157.75922	0.12734
6159.79956	0.12680
6161.83991	0.13566
6163.88025	0.14077
6165.92060	0.13109
6167.96094	0.12268
6170.00129	0.13131
6172.04163	0.14048
6174.08197	0.13456
6176.12232	0.12590
6178.16266	0.12519
6180.20301	0.13367
6182.24335	0.14273
6184.28370	0.13928
6186.32404	0.13089
6188.36439	0.13074
6190.40473	0.13654
6192.44507	0.14088
6194.48542	0.14105
6196.52576	0.13771
6198.56611	0.13432
6200.60645	0.13440
6202.64680	0.13443
6204.68714	0.13675
6206.72748	0.14404
6208.76783	0.14369
6210.80817	0.13673
6212.84852	0.13791
6214.88886	0.13972
6216.92921	0.12823
6218.96955	0.12182
6221.00989	0.13250
6223.05024	0.14288
6225.09058	0.14308
6227.13093	0.13751
6229.17127	0.13519
6231.21162	0.13982
6233.25196	0.14586
6235.29231	0.14314
6237.33265	0.12858
6239.37299	0.11863
6241.41334	0.12611
6243.45368	0.13430
6245.49403	0.13028
6247.53437	0.12298
6249.57472	0.11634
6251.61506	0.11556
6253.65540	0.12545
6255.69575	0.13020
6257.73609	0.12470
6259.77644	0.12633
6261.81678	0.13429
6263.85713	0.12968
6265.89747	0.12057
6267.93781	0.12306
6269.97816	0.12668
6272.01850	0.12767
6274.05885	0.13509
6276.09919	0.13736
6278.13954	0.13138
6280.17988	0.13074
6282.22022	0.13122
6284.26057	0.12964
6286.30091	0.13355
6288.34126	0.13947
6290.38160	0.14005
6292.42195	0.14006
6294.46229	0.14243
6296.50264	0.14395
6298.54298	0.13876
6300.58332	0.12532
6302.62367	0.11194
6304.66401	0.11256
6306.70436	0.12775
6308.74470	0.14285
6310.78505	0.14722
6312.82539	0.13838
6314.86573	0.12527
6316.90608	0.12313
6318.94642	0.13260
6320.98677	0.14277
6323.02711	0.14418
6325.06746	0.13742
6327.10780	0.13435
6329.14814	0.13145
6331.18849	0.11929
6333.22883	0.10960
6335.26918	0.11476
6337.30952	0.12564
6339.34987	0.13417
6341.39021	0.13783
6343.43056	0.13685
6345.47090	0.13995
6347.51124	0.14404
6349.55159	0.13647
6351.59193	0.12684
6353.63228	0.12457
6355.67262	0.12406
6357.71297	0.12452
6359.75331	0.12882
6361.79365	0.13051
6363.83400	0.12895
6365.87434	0.12559
6367.91469	0.11977
6369.95503	0.11129
6371.99538	0.10935
6374.03572	0.12164
6376.07606	0.13906
6378.11641	0.14697
6380.15675	0.14092
6382.19710	0.13065
6384.23744	0.12457
6386.27779	0.11769
6388.31813	0.11452
6390.35847	0.12069
6392.39882	0.13040
6394.43916	0.13827
6396.47951	0.13693
6398.51985	0.12789
6400.56020	0.11635
6402.60054	0.11412
6404.64089	0.12518
6406.68123	0.13057
6408.72157	0.12683
6410.76192	0.12392
6412.80226	0.12311
6414.84261	0.12906
6416.88295	0.13537
6418.92330	0.13307
6420.96364	0.13182
6423.00398	0.13668
6425.04433	0.13835
6427.08467	0.13181
6429.12502	0.12733
6431.16536	0.13669
6433.20571	0.15063
6435.24605	0.15396
6437.28639	0.14660
6439.32674	0.13258
6441.36708	0.12119
6443.40743	0.11970
6445.44777	0.12503
6447.48812	0.14064
6449.52846	0.15652
6451.56881	0.14983
6453.60915	0.12934
6455.64949	0.11798
6457.68984	0.11690
6459.73018	0.12302
6461.77053	0.13668
6463.81087	0.14720
6465.85122	0.14512
6467.89156	0.13792
6469.93190	0.13707
6471.97225	0.14058
6474.01259	0.14322
6476.05294	0.14828
6478.09328	0.15307
6480.13363	0.15072
6482.17397	0.14227
6484.21431	0.13548
6486.25466	0.13642
6488.29500	0.14085
6490.33535	0.13945
6492.37569	0.13092
6494.41604	0.12459
6496.45638	0.12734
6498.49672	0.13890
6500.53707	0.14637
6502.57741	0.14483
6504.61776	0.13519
6506.65810	0.12360
6508.69845	0.12222
6510.73879	0.12289
6512.77914	0.11331
6514.81948	0.10793
6516.85982	0.11102
6518.90017	0.11170
6520.94051	0.11297
6522.98086	0.11403
6525.02120	0.10859
6527.06155	0.10955
6529.10189	0.13020
6531.14223	0.15008
6533.18258	0.14859
6535.22292	0.13598
6537.26327	0.12861
6539.30361	0.13084
6541.34396	0.13973
6543.38430	0.14842
6545.42464	0.14671
6547.46499	0.13920
6549.50533	0.13446
6551.54568	0.13378
6553.58602	0.14211
6555.62637	0.14765
6557.66671	0.14097
6559.70706	0.13322
6561.74740	0.13373
6563.78774	0.13634
6565.82809	0.13378
6567.86843	0.12614
6569.90878	0.11418
6571.94912	0.10605
6573.98947	0.10604
6576.02981	0.11328
6578.07015	0.12595
6580.11050	0.13851
6582.15084	0.13714
6584.19119	0.12947
6586.23153	0.13715
6588.27188	0.14504
6590.31222	0.13590
6592.35256	0.12240
6594.39291	0.11419
6596.43325	0.11429
6598.47360	0.12147
6600.51394	0.13106
6602.55429	0.13947
6604.59463	0.14062
6606.63498	0.13563
6608.67532	0.13333
6610.71566	0.13625
6612.75601	0.13849
6614.79635	0.13473
6616.83670	0.12768
6618.87704	0.12519
6620.91739	0.13099
6622.95773	0.13922
6624.99807	0.14693
6627.03842	0.14676
6629.07876	0.12999
6631.11911	0.11153
6633.15945	0.10472
6635.19980	0.10967
6637.24014	0.12873
6639.28048	0.14769
6641.32083	0.14713
6643.36117	0.12903
6645.40152	0.11072
6647.44186	0.11109
6649.48221	0.12481
6651.52255	0.14095
6653.56289	0.15370
6655.60324	0.14945
6657.64358	0.13957
6659.68393	0.14219
6661.72427	0.14177
6663.76462	0.12318
6665.80496	0.10223
6667.84531	0.10207
6669.88565	0.11346
6671.92599	0.11885
6673.96634	0.11456
6676.00668	0.11152
6678.04703	0.11902
6680.08737	0.12674
6682.12772	0.12103
6684.16806	0.11507
6686.20840	0.12888
6688.24875	0.15104
6690.28909	0.15355
6692.32944	0.14189
6694.36978	0.14325
6696.41013	0.14693
6698.45047	0.14426
6700.49081	0.14917
6702.53116	0.14983
6704.57150	0.14656
6706.61185	0.15353
6708.65219	0.15303
6710.69254	0.13265
6712.73288	0.11071
6714.77323	0.10458
6716.81357	0.10895
6718.85391	0.11090
6720.89426	0.11307
6722.93460	0.12438
6724.97495	0.13529
6727.01529	0.13029
6729.05564	0.11973
6731.09598	0.13128
6733.13632	0.14609
6735.17667	0.13852
6737.21701	0.12448
6739.25736	0.12311
6741.29770	0.13028
6743.33805	0.13519
6745.37839	0.13054
6747.41873	0.12446
6749.45908	0.12486
6751.49942	0.12527
6753.53977	0.12548
6755.58011	0.13198
6757.62046	0.13853
6759.66080	0.13960
6761.70114	0.13611
6763.74149	0.13298
6765.78183	0.12977
6767.82218	0.12479
6769.86252	0.12360
6771.90287	0.12472
6773.94321	0.12638
6775.98356	0.12904
6778.02390	0.13245
6780.06424	0.13729
6782.10459	0.13739
6784.14493	0.13260
6786.18528	0.13024
6788.22562	0.13161
6790.26597	0.13531
6792.30631	0.14167
6794.34665	0.14515
6796.38700	0.13596
6798.42734	0.12633
6800.46769	0.12899
6802.50803	0.14014
6804.54838	0.14404
6806.58872	0.13176
6808.62906	0.12040
6810.66941	0.11923
6812.70975	0.12106
6814.75010	0.12702
6816.79044	0.13336
6818.83079	0.14137
6820.87113	0.15028
6822.91148	0.14241
6824.95182	0.11970
6826.99216	0.11609
6829.03251	0.13025
6831.07285	0.13929
6833.11320	0.14322
6835.15354	0.15009
6837.19389	0.14916
6839.23423	0.14418
6841.27457	0.14754
6843.31492	0.14003
6845.35526	0.12003
6847.39561	0.11072
6849.43595	0.11102
6851.47630	0.11673
6853.51664	0.12283
6855.55698	0.12204
6857.59733	0.12073
6859.63767	0.13560
6861.67802	0.15442
6863.71836	0.16744
6865.75871	0.16295
6867.79905	0.13498
6869.83939	0.11438
6871.87974	0.12735
6873.92008	0.15459
6875.96043	0.16566
6878.00077	0.15933
6880.04112	0.15179
6882.08146	0.14104
6884.12181	0.12877
6886.16215	0.13070
6888.20249	0.14385
6890.24284	0.15609
6892.28318	0.15591
6894.32353	0.13661
6896.36387	0.11460
6898.40422	0.10460
6900.44456	0.10209
6902.48490	0.10370
6904.52525	0.10783
6906.56559	0.11683
6908.60594	0.12790
6910.64628	0.13299
6912.68663	0.13841
6914.72697	0.14492
6916.76731	0.15528
6918.80766	0.14874
6920.84800	0.13196
6922.88835	0.12765
6924.92869	0.12747
6926.96904	0.12048
6929.00938	0.12071
6931.04973	0.12669
6933.09007	0.12744
6935.13041	0.12811
6937.17076	0.12798
6939.21110	0.13133
6941.25145	0.13992
6943.29179	0.13210
6945.33214	0.11231
6947.37248	0.10615
6949.41282	0.11208
6951.45317	0.11260
6953.49351	0.10497
6955.53386	0.11369
6957.57420	0.13757
6959.61455	0.14402
6961.65489	0.12575
6963.69523	0.10595
6965.73558	0.10706
6967.77592	0.11980
6969.81627	0.12795
6971.85661	0.13043
6973.89696	0.14060
6975.93730	0.16428
6977.97765	0.17767
6980.01799	0.15941
6982.05833	0.14229
6984.09868	0.14319
6986.13902	0.14375
6988.17937	0.13758
6990.21971	0.12523
6992.26006	0.11879
6994.30040	0.12342
6996.34074	0.12967
6998.38109	0.13538
7000.42143	0.14278
7002.46178	0.14735
7004.50212	0.15284
7006.54247	0.14959
7008.58281	0.12451
7010.62315	0.11103
7012.66350	0.12872
7014.70384	0.13555
7016.74419	0.12851
7018.78453	0.14229
7020.82488	0.15041
7022.86522	0.13799
7024.90556	0.14332
7026.94591	0.15720
7028.98625	0.13835
7031.02660	0.10516
7033.06694	0.09493
7035.10729	0.09918
7037.14763	0.11488
7039.18798	0.14334
7041.22832	0.16300
7043.26866	0.15896
7045.30901	0.14344
7047.34935	0.13231
7049.38970	0.13723
7051.43004	0.13862
7053.47039	0.11609
7055.51073	0.10840
7057.55107	0.12620
7059.59142	0.13094
7061.63176	0.12459
7063.67211	0.14408
7065.71245	0.16728
7067.75280	0.16435
7069.79314	0.15480
7071.83348	0.15912
7073.87383	0.16200
7075.91417	0.15155
7077.95452	0.12921
7079.99486	0.10451
7082.03521	0.09939
7084.07555	0.11354
7086.11590	0.13290
7088.15624	0.14909
7090.19658	0.14929
7092.23693	0.13692
7094.27727	0.13307
7096.31762	0.13385
7098.35796	0.12034
7100.39831	0.10517
7102.43865	0.10112
7104.47899	0.11349
7106.51934	0.12923
7108.55968	0.12880
7110.60003	0.12035
7112.64037	0.12091
7114.68072	0.13587
7116.72106	0.15743
7118.76140	0.15937
7120.80175	0.13153
7122.84209	0.11770
7124.88244	0.12879
7126.92278	0.13668
7128.96313	0.12649
7131.00347	0.10569
7133.04381	0.10708
7135.08416	0.14169
7137.12450	0.16827
7139.16485	0.16414
7141.20519	0.15054
7143.24554	0.14077
7145.28588	0.13991
7147.32623	0.13250
7149.36657	0.12464
7151.40691	0.12127
7153.44726	0.11934
7155.48760	0.11536
7157.52795	0.10790
7159.56829	0.10891
7161.60864	0.12486
7163.64898	0.13025
7165.68932	0.11727
7167.72967	0.10629
7169.77001	0.12020
7171.81036	0.15267
7173.85070	0.18167
7175.89105	0.19738
7177.93139	0.18913
7179.97173	0.16176
7182.01208	0.13249
7184.05242	0.12434
7186.09277	0.12978
7188.13311	0.11695
7190.17346	0.10117
7192.21380	0.10693
7194.25415	0.11247
7196.29449	0.09897
7198.33483	0.10214
7200.37518	0.10921
7202.41552	0.10695
7204.45587	0.10342
7206.49621	0.11319
7208.53656	0.16234
7210.57690	0.20463
7212.61724	0.18840
7214.65759	0.13398
7216.69793	0.10879
7218.73828	0.13015
7220.77862	0.15601
7222.81897	0.15517
7224.85931	0.13413
7226.89965	0.12862
7228.94000	0.15714
7230.98034	0.15559
7233.02069	0.14211
7235.06103	0.15604
7237.10138	0.15619
7239.14172	0.14053
7241.18206	0.12759
7243.22241	0.14107
7245.26275	0.16306
7247.30310	0.17145
7249.34344	0.16380
7251.38379	0.14216
7253.42413	0.13237
7255.46448	0.15067
7257.50482	0.16038
7259.54516	0.13412
7261.58551	0.09688
7263.62585	0.09084
7265.66620	0.10086
7267.70654	0.10816
7269.74689	0.12829
7271.78723	0.13853
7273.82757	0.12778
7275.86792	0.13786
7277.90826	0.14010
7279.94861	0.11705
7281.98895	0.10067
7284.02930	0.11433
7286.06964	0.13889
7288.10998	0.16260
7290.15033	0.17510
7292.19067	0.14655
7294.23102	0.11528
7296.27136	0.11553
7298.31171	0.12022
7300.35205	0.12066
7302.39240	0.12342
7304.43274	0.14054
7306.47308	0.17873
7308.51343	0.19859
7310.55377	0.17258
7312.59412	0.15010
7314.63446	0.14225
7316.67481	0.12816
7318.71515	0.14172
7320.75549	0.17546
7322.79584	0.19016
7324.83618	0.16077
7326.87653	0.11708
7328.91687	0.12066
7330.95722	0.14087
7332.99756	0.15392
7335.03790	0.17929
7337.07825	0.19296
7339.11859	0.18806
7341.15894	0.16670
7343.19928	0.13690
7345.23963	0.13506
7347.27997	0.14649
7349.32032	0.16070
7351.36066	0.17748
7353.40100	0.17792
7355.44135	0.16195
7357.48169	0.15222
7359.52204	0.16980
7361.56238	0.17952
7363.60273	0.12948
7365.64307	0.08939
7367.68341	0.11224
7369.72376	0.15138
7371.76410	0.16077
7373.80445	0.16694
7375.84479	0.18108
7377.88514	0.17008
7379.92548	0.13236
7381.96582	0.09112
7384.00617	0.06338
7386.04651	0.08457
7388.08686	0.13354
7390.12720	0.16979
7392.16755	0.16706
7394.20789	0.14567
7396.24823	0.13936
7398.28858	0.13756
7400.32892	0.15479
7402.36927	0.15682
7404.40961	0.12570
7406.44996	0.11859
7408.49030	0.14147
7410.53065	0.20175
7412.57099	0.24857
7414.61133	0.24781
7416.65168	0.22818
7418.69202	0.21943
7420.73237	0.18612
7422.77271	0.15395
7424.81306	0.18242
7426.85340	0.20315
7428.89374	0.18724
7430.93409	0.15479
7432.97443	0.09364
7435.01478	0.04951
7437.05512	0.06530
7439.09547	0.09585
7441.13581	0.12381
7443.17615	0.14612
7445.21650	0.13202
7447.25684	0.09130
7449.29719	0.09059
7451.33753	0.14073
7453.37788	0.16032
7455.41822	0.15832
7457.45857	0.16931
7459.49891	0.15670
7461.53925	0.11532
7463.57960	0.08876
7465.61994	0.07975
7467.66029	0.10036
7469.70063	0.16093
7471.74098	0.17077
7473.78132	0.12460
7475.82166	0.10897
7477.86201	0.11903
7479.90235	0.12617
7481.94270	0.12482
7483.98304	0.07520
7486.02339	0.05993
7488.06373	0.11622
7490.10407	0.15913
7492.14442	0.14631
7494.18476	0.14377
7496.22511	0.14702
7498.26545	0.12941
7500.30580	0.12400
7502.34614	0.14770
7504.38648	0.15122
7506.42683	0.16426
7508.46717	0.18412
7510.50752	0.17314
7512.54786	0.11990
7514.58821	0.10532
7516.62855	0.14344
7518.66890	0.17111
7520.70924	0.20544
7522.74958	0.23973
7524.78993	0.19965
7526.83027	0.22055
7528.87062	0.28136
7530.91096	0.30004
7532.95131	0.26626
7534.99165	0.21318
7537.03199	0.14279
7539.07234	0.08054
7541.11268	0.07519
7543.15303	0.10433
7545.19337	0.09296
7547.23372	0.05187
7549.27406	0.04365
7551.31440	0.06220
7553.35475	0.07033
7555.39509	0.08436
7557.43544	0.13771
7559.47578	0.17779
7561.51613	0.16437
7563.55647	0.12841
7565.59682	0.16001
7567.63716	0.18877
7569.67750	0.16090
7571.71785	0.12270
7573.75819	0.10850
7575.79854	0.07992
7577.83888	0.07144
7579.87923	0.14133
7581.91957	0.18630
7583.95991	0.13811
7586.00026	0.08046
7588.04060	0.07753
7590.08095	0.05943
7592.12129	0.07188
7594.16164	0.11582
7596.20198	0.14137
7598.24232	0.11723
7600.28267	0.07404
7602.32301	0.11524
7604.36336	0.14498
7606.40370	0.12185
7608.44405	0.10025
7610.48439	0.13181
7612.52473	0.14796
7614.56508	0.11757
7616.60542	0.12318
7618.64577	0.20501
7620.68611	0.27435
7622.72646	0.21799
7624.76680	0.07891
7626.80715	0.01529
7628.84749	0.04402
7630.88783	0.07632
7632.92818	0.08050
7634.96852	0.09142
7637.00887	0.21479
7639.04921	0.23925
7641.08956	0.21895
7643.12990	0.17467
7645.17024	0.13778
7647.21059	0.13591
7649.25093	0.14784
7651.29128	0.11569
7653.33162	0.05266
7655.37197	0.04395
7657.41231	0.09369
7659.45265	0.17021
7661.49300	0.21095
7663.53334	0.15526
7665.57369	0.09621
7667.61403	0.11672
7669.65438	0.15260
7671.69472	0.16071
7673.73507	0.14348
7675.77541	0.13938
7677.81575	0.15656
7679.85610	0.13556
7681.89644	0.12737
7683.93679	0.11174
7685.97713	0.14720
7688.01748	0.15044
7690.05782	0.12853
7692.09816	0.11445
7694.13851	0.18659
7696.17885	0.20609
7698.21920	0.20291
7700.25954	0.24420
7702.29989	0.23551
7704.34023	0.22203
7706.38057	0.27950
7708.42092	0.25170
7710.46126	0.15701
7712.50161	0.15247
7714.54195	0.14651
7716.58230	0.16917
7718.62264	0.26696
7720.66298	0.31987
7722.70333	0.24164
7724.74367	0.10859
7726.78402	0.13035
7728.82436	0.20975
7730.86471	0.24643
7732.90505	0.34660
7734.94540	0.33510
7736.98574	0.23372
7739.02608	0.20943
7741.06643	0.27711
7743.10677	0.35044
7745.14712	0.31986
7747.18746	0.23759
7749.22781	0.19696
7751.26815	0.12693
7753.30849	0.01414
7755.34884	0.06483
7757.38918	0.17721
7759.42953	0.18252
7761.46987	0.21060
7763.51022	0.31319
7765.55056	0.26859
7767.59090	0.18734
7769.63125	0.13985
7771.67159	0.13444
7773.71194	0.16593
7775.75228	0.18985
7777.79263	0.21553
7779.83297	0.24279
7781.87332	0.25616
7783.91366	0.19402
7785.95400	0.04546
7787.99435	0.12728
7790.03469	0.21624
7792.07504	0.21269
7794.11538	0.26020
7796.15573	0.24619
7798.19607	0.09753
7800.23641	0.19532
7802.27676	0.35201
7804.31710	0.37267
7806.35745	0.26277
7808.39779	0.17631
7810.43814	0.21625
7812.47848	0.23863
7814.51882	0.19312
7816.55917	0.20680
7818.59951	0.14187
7820.63986	0.04972
7822.68020	0.08418
7824.72055	0.22433
7826.76089	0.26365
7828.80124	0.19176
7830.84158	0.11278
7832.88192	0.10925
7834.92227	0.13309
7836.96261	0.21912
7839.00296	0.34419
7841.04330	0.32480
7843.08365	0.24472
7845.12399	0.20588
7847.16433	0.19250
7849.20468	0.24451
7851.24502	0.24090
7853.28537	0.09357
7855.32571	0.02613
7857.36606	0.03954
7859.40640	0.05881
7861.44674	0.05378
7863.48709	0.10093
7865.52743	0.17135
7867.56778	0.18876
7869.60812	0.14006
7871.64847	0.14597
7873.68881	0.13739
7875.72915	0.11807
7877.76950	0.36875
7879.80984	0.48931
7881.85019	0.39113
7883.89053	0.28311
7885.93088	0.30517
7887.97122	0.41467
7890.01157	0.42598
7892.05191	0.21611
7894.09225	0.04795
7896.13260	0.08082
7898.17294	0.22187
7900.21329	0.29195
7902.25363	0.18344
7904.29398	0.15038
7906.33432	0.20929
7908.37466	0.20376
7910.41501	0.18262
7912.45535	0.21611
7914.49570	0.28613
7916.53604	0.32222
7918.57639	0.32019
7920.61673	0.33108
7922.65707	0.35319
7924.69742	0.33503
7926.73776	0.30075
7928.77811	0.25570
7930.81845	0.24009
7932.85880	0.26626
7934.89914	0.24737
7936.93949	0.19431
7938.97983	0.17869
7941.02017	0.20439
7943.06052	0.18421
7945.10086	0.01165
7947.14121	0.29175
7949.18155	0.55113
7951.22190	0.57321
7953.26224	0.43087
7955.30258	0.31537
7957.34293	0.19999
7959.38327	0.25102
7961.42362	0.22097
7963.46396	0.17695
7965.50431	0.23965
7967.54465	0.19786
7969.58499	0.16839
7971.62534	0.13614
7973.66568	0.18619
7975.70603	0.19371
7977.74637	0.15348
7979.78672	0.35867
7981.82706	0.36780
7983.86740	0.34463
7985.90775	0.36503
7987.94809	0.39436
7989.98844	0.34346
7992.02878	0.22785
7994.06913	0.09281
7996.10947	0.14881
