499.88436	0.14988
501.92471	0.16098
503.96505	0.15594
506.00540	0.21902
508.04574	0.40705
510.08609	0.41467
512.12643	0.25204
514.16677	0.31225
516.20712	0.50502
518.24746	0.61733
520.28781	0.75771
522.32815	0.99203
524.36850	1.24186
526.40884	1.52595
528.44918	1.73693
530.48953	1.74598
532.52987	1.75306
534.57022	1.78657
536.61056	1.74209
538.65091	1.70753
540.69125	1.80634
542.73159	1.92667
544.77194	1.90889
546.81228	1.80548
548.85263	1.72300
550.89297	1.65045
552.93332	1.59093
554.97366	1.56956
557.01400	1.54074
559.05435	1.47825
561.09469	1.37969
563.13504	1.26766
565.17538	1.15118
567.21573	1.00689
569.25607	0.84304
571.29642	0.69297
573.33676	0.56236
575.37710	0.44430
577.41745	0.33773
579.45779	0.24620
581.49814	0.18182
583.53848	0.14332
585.57883	0.11495
587.61917	0.08823
589.65951	0.06778
591.69986	0.05865
593.74020	0.05977
595.78055	0.06449
597.82089	0.06601
599.86124	0.06485
601.90158	0.06746
603.94192	0.07507
605.98227	0.08263
608.02261	0.08724
610.06296	0.09247
612.10330	0.10272
614.14365	0.11703
616.18399	0.13119
618.22434	0.14700
620.26468	0.16630
622.30502	0.18677
624.34537	0.20998
626.38571	0.23854
628.42606	0.26857
630.46640	0.29351
632.50675	0.30819
634.54709	0.31096
636.58743	0.30435
638.62778	0.28912
640.66812	0.26489
642.70847	0.23384
644.74881	0.19763
646.78916	0.16085
648.82950	0.13001
650.86984	0.10676
652.91019	0.08943
654.95053	0.07701
656.99088	0.06999
659.03122	0.06764
661.07157	0.06791
663.11191	0.06924
665.15226	0.07002
667.19260	0.06986
669.23294	0.07086
671.27329	0.07310
673.31363	0.07545
675.35398	0.07876
677.39432	0.08332
679.43467	0.08798
681.47501	0.09129
683.51535	0.09390
685.55570	0.09729
687.59604	0.10068
689.63639	0.10339
691.67673	0.10606
693.71708	0.10887
695.75742	0.11240
697.79776	0.11674
699.83811	0.12061
701.87845	0.12348
703.91880	0.12575
705.95914	0.12797
707.99949	0.13103
710.03983	0.13527
712.08017	0.13983
714.12052	0.14323
716.16086	0.14571
718.20121	0.14890
720.24155	0.15278
722.28190	0.15584
724.32224	0.15753
726.36259	0.15957
728.40293	0.16317
730.44327	0.16717
732.48362	0.17071
734.52396	0.17412
736.56431	0.17781
738.60465	0.18164
740.64500	0.18546
742.68534	0.18976
744.72568	0.19429
746.76603	0.19809
748.80637	0.20119
750.84672	0.20422
752.88706	0.20761
754.92741	0.21150
756.96775	0.21583
759.00809	0.22046
761.04844	0.22491
763.08878	0.22922
765.12913	0.23393
767.16947	0.23856
769.20982	0.24250
771.25016	0.24671
773.29051	0.25159
775.33085	0.25696
777.37119	0.26285
779.41154	0.26851
781.45188	0.27375
783.49223	0.27934
785.53257	0.28557
787.57292	0.29192
789.61326	0.29802
791.65360	0.30441
793.69395	0.31151
795.73429	0.31871
797.77464	0.32572
799.81498	0.33319
801.85533	0.34146
803.89567	0.35021
805.93601	0.35884
807.97636	0.36781
810.01670	0.37810
812.05705	0.38948
814.09739	0.40127
816.13774	0.41377
818.17808	0.42776
820.21842	0.44326
822.25877	0.46026
824.29911	0.47953
826.33946	0.50164
828.37980	0.52659
830.42015	0.55428
832.46049	0.58386
834.50084	0.61136
836.54118	0.62708
838.58152	0.61899
840.62187	0.58316
842.66221	0.53129
844.70256	0.48641
846.74290	0.46755
848.78325	0.47668
850.82359	0.50327
852.86393	0.53766
854.90428	0.57601
856.94462	0.61772
858.98497	0.66350
861.02531	0.71555
863.06566	0.77634
865.10600	0.84720
867.14634	0.92768
869.18669	1.01359
871.22703	1.09666
873.26738	1.16981
875.30772	1.23160
877.34807	1.28465
879.38841	1.33240
881.42876	1.37726
883.46910	1.42065
885.50944	1.46359
887.54979	1.50678
889.59013	1.55085
891.63048	1.59689
893.67082	1.64681
895.71117	1.70167
897.75151	1.76025
899.79185	1.81887
901.83220	1.87195
903.87254	1.91493
905.91289	1.94663
907.95323	1.96883
909.99358	1.98452
912.03392	1.99594
914.07426	2.00414
916.11461	2.00990
918.15495	2.01405
920.19530	2.01726
922.23564	2.01953
924.27599	2.02044
926.31633	2.01960
928.35667	2.01669
930.39702	2.01190
932.43736	2.00564
934.47771	1.99780
936.51805	1.98807
938.55840	1.97637
940.59874	1.96213
942.63909	1.94444
944.67943	1.92241
946.71977	1.89454
948.76012	1.85834
950.80046	1.80934
952.84081	1.73950
954.88115	1.63643
956.92150	1.49456
958.96184	1.33650
961.00218	1.20162
963.04253	1.10648
965.08287	1.04114
967.12322	0.99345
969.16356	0.95767
971.20391	0.93182
973.24425	0.91632
975.28459	0.91479
977.32494	0.93218
979.36528	0.96829
981.40563	1.01213
983.44597	1.04325
985.48632	1.04076
987.52666	0.99521
989.56701	0.91510
991.60735	0.81938
993.64769	0.72225
995.68804	0.62763
997.72838	0.53538
999.76873	0.44680
1001.80907	0.36477
1003.84942	0.29220
1005.88976	0.23121
1007.93010	0.18255
1009.97045	0.14541
1012.01079	0.11787
1014.05114	0.09764
1016.09148	0.08299
1018.13183	0.07276
1020.17217	0.06588
1022.21251	0.06143
1024.25286	0.05876
1026.29320	0.05797
1028.33355	0.05934
1030.37389	0.06266
1032.41424	0.06809
1034.45458	0.07595
1036.49493	0.08658
1038.53527	0.10065
1040.57561	0.11952
1042.61596	0.14528
1044.65630	0.18002
1046.69665	0.22460
1048.73699	0.27741
1050.77734	0.33363
1052.81768	0.38695
1054.85802	0.43270
1056.89837	0.46908
1058.93871	0.49619
1060.97906	0.51509
1063.01940	0.52672
1065.05975	0.53128
1067.10009	0.52749
1069.14043	0.51286
1071.18078	0.48449
1073.22112	0.44087
1075.26147	0.38392
1077.30181	0.31891
1079.34216	0.25293
1081.38250	0.19298
1083.42284	0.14380
1085.46319	0.10654
1087.50353	0.07970
1089.54388	0.06102
1091.58422	0.04820
1093.62457	0.03927
1095.66491	0.03284
1097.70526	0.02797
1099.74560	0.02417
1101.78594	0.02135
1103.82629	0.01941
1105.86663	0.01802
1107.90698	0.01688
1109.94732	0.01603
1111.98767	0.01554
1114.02801	0.01515
1116.06835	0.01478
1118.10870	0.01459
1120.14904	0.01458
1122.18939	0.01484
1124.22973	0.01551
1126.27008	0.01617
1128.31042	0.01661
1130.35076	0.01703
1132.39111	0.01728
1134.43145	0.01731
1136.47180	0.01743
1138.51214	0.01789
1140.55249	0.01858
1142.59283	0.01922
1144.63318	0.01993
1146.67352	0.02076
1148.71386	0.02149
1150.75421	0.02213
1152.79455	0.02265
1154.83490	0.02315
1156.87524	0.02383
1158.91559	0.02447
1160.95593	0.02510
1162.99627	0.02585
1165.03662	0.02639
1167.07696	0.02674
1169.11731	0.02723
1171.15765	0.02790
1173.19800	0.02864
1175.23834	0.02922
1177.27868	0.02965
1179.31903	0.03016
1181.35937	0.03063
1183.39972	0.03101
1185.44006	0.03152
1187.48041	0.03209
1189.52075	0.03270
1191.56109	0.03348
1193.60144	0.03424
1195.64178	0.03475
1197.68213	0.03499
1199.72247	0.03530
1201.76282	0.03606
1203.80316	0.03689
1205.84351	0.03752
1207.88385	0.03817
1209.92419	0.03876
1211.96454	0.03918
1214.00488	0.03941
1216.04523	0.03968
1218.08557	0.04013
1220.12592	0.04050
1222.16626	0.04096
1224.20660	0.04166
1226.24695	0.04223
1228.28729	0.04259
1230.32764	0.04305
1232.36798	0.04362
1234.40833	0.04395
1236.44867	0.04412
1238.48901	0.04462
1240.52936	0.04540
1242.56970	0.04594
1244.61005	0.04617
1246.65039	0.04643
1248.69074	0.04678
1250.73108	0.04722
1252.77143	0.04775
1254.81177	0.04821
1256.85211	0.04855
1258.89246	0.04898
1260.93280	0.04964
1262.97315	0.05037
1265.01349	0.05105
1267.05384	0.05186
1269.09418	0.05268
1271.13452	0.05321
1273.17487	0.05345
1275.21521	0.05356
1277.25556	0.05371
1279.29590	0.05393
1281.33625	0.05415
1283.37659	0.05441
1285.41693	0.05455
1287.45728	0.05469
1289.49762	0.05504
1291.53797	0.05558
1293.57831	0.05625
1295.61866	0.05677
1297.65900	0.05704
1299.69934	0.05731
1301.73969	0.05762
1303.78003	0.05805
1305.82038	0.05878
1307.86072	0.05954
1309.90107	0.06002
1311.94141	0.06028
1313.98176	0.06040
1316.02210	0.06047
1318.06244	0.06047
1320.10279	0.06048
1322.14313	0.06088
1324.18348	0.06149
1326.22382	0.06186
1328.26417	0.06207
1330.30451	0.06226
1332.34485	0.06246
1334.38520	0.06285
1336.42554	0.06346
1338.46589	0.06405
1340.50623	0.06425
1342.54658	0.06402
1344.58692	0.06399
1346.62726	0.06463
1348.66761	0.06542
1350.70795	0.06566
1352.74830	0.06554
1354.78864	0.06556
1356.82899	0.06574
1358.86933	0.06600
1360.90968	0.06638
1362.95002	0.06686
1364.99036	0.06729
1367.03071	0.06767
1369.07105	0.06798
1371.11140	0.06807
1373.15174	0.06820
1375.19209	0.06860
1377.23243	0.06898
1379.27277	0.06944
1381.31312	0.07016
1383.35346	0.07056
1385.39381	0.07064
1387.43415	0.07113
1389.47450	0.07196
1391.51484	0.07251
1393.55518	0.07274
1395.59553	0.07292
1397.63587	0.07339
1399.67622	0.07396
1401.71656	0.07422
1403.75691	0.07444
1405.79725	0.07482
1407.83760	0.07515
1409.87794	0.07532
1411.91828	0.07534
1413.95863	0.07545
1415.99897	0.07576
1418.03932	0.07606
1420.07966	0.07605
1422.12001	0.07600
1424.16035	0.07616
1426.20069	0.07635
1428.24104	0.07645
1430.28138	0.07644
1432.32173	0.07636
1434.36207	0.07635
1436.40242	0.07686
1438.44276	0.07750
1440.48310	0.07745
1442.52345	0.07726
1444.56379	0.07736
1446.60414	0.07748
1448.64448	0.07764
1450.68483	0.07797
1452.72517	0.07818
1454.76551	0.07823
1456.80586	0.07839
1458.84620	0.07861
1460.88655	0.07865
1462.92689	0.07873
1464.96724	0.07897
1467.00758	0.07939
1469.04793	0.08006
1471.08827	0.08077
1473.12861	0.08120
1475.16896	0.08131
1477.20930	0.08137
1479.24965	0.08162
1481.28999	0.08211
1483.33034	0.08248
1485.37068	0.08239
1487.41102	0.08203
1489.45137	0.08190
1491.49171	0.08211
1493.53206	0.08248
1495.57240	0.08303
1497.61275	0.08342
1499.65309	0.08331
1501.69343	0.08300
1503.73378	0.08261
1505.77412	0.08245
1507.81447	0.08286
1509.85481	0.08313
1511.89516	0.08339
1513.93550	0.08388
1515.97585	0.08444
1518.01619	0.08468
1520.05653	0.08492
1522.09688	0.08599
1524.13722	0.08701
1526.17757	0.08731
1528.21791	0.08730
1530.25826	0.08745
1532.29860	0.08790
1534.33894	0.08814
1536.37929	0.08801
1538.41963	0.08801
1540.45998	0.08838
1542.50032	0.08883
1544.54067	0.08900
1546.58101	0.08911
1548.62135	0.08918
1550.66170	0.08900
1552.70204	0.08868
1554.74239	0.08852
1556.78273	0.08893
1558.82308	0.08995
1560.86342	0.09000
1562.90376	0.08985
1564.94411	0.09020
1566.98445	0.09046
1569.02480	0.09047
1571.06514	0.09056
1573.10549	0.09050
1575.14583	0.09026
1577.18618	0.09019
1579.22652	0.09041
1581.26686	0.09052
1583.30721	0.09055
1585.34755	0.09079
1587.38790	0.09100
1589.42824	0.09095
1591.46859	0.09089
1593.50893	0.09106
1595.54927	0.09144
1597.58962	0.09166
1599.62996	0.09159
1601.67031	0.09150
1603.71065	0.09161
1605.75100	0.09192
1607.79134	0.09225
1609.83168	0.09248
1611.87203	0.09252
1613.91237	0.09257
1615.95272	0.09292
1617.99306	0.09341
1620.03341	0.09359
1622.07375	0.09369
1624.11410	0.09398
1626.15444	0.09430
1628.19478	0.09457
1630.23513	0.09480
1632.27547	0.09490
1634.31582	0.09493
1636.35616	0.09513
1638.39651	0.09531
1640.43685	0.09542
1642.47719	0.09564
1644.51754	0.09584
1646.55788	0.09596
1648.59823	0.09620
1650.63857	0.09663
1652.67892	0.09709
1654.71926	0.09678
1656.75960	0.09634
1658.79995	0.09629
1660.84029	0.09649
1662.88064	0.09670
1664.92098	0.09672
1666.96133	0.09651
1669.00167	0.09627
1671.04201	0.09616
1673.08236	0.09617
1675.12270	0.09638
1677.16305	0.09662
1679.20339	0.09662
1681.24374	0.09669
1683.28408	0.09722
1685.32443	0.09779
1687.36477	0.09790
1689.40511	0.09802
1691.44546	0.09809
1693.48580	0.09819
1695.52615	0.09848
1697.56649	0.09863
1699.60684	0.09866
1701.64718	0.09848
1703.68752	0.09822
1705.72787	0.09843
1707.76821	0.09884
1709.80856	0.09911
1711.84890	0.09931
1713.88925	0.09938
1715.92959	0.09930
1717.96993	0.09890
1720.01028	0.09838
1722.05062	0.09827
1724.09097	0.09846
1726.13131	0.09861
1728.17166	0.09879
1730.21200	0.09916
1732.25235	0.09978
1734.29269	0.10033
1736.33303	0.10026
1738.37338	0.10023
1740.41372	0.10042
1742.45407	0.10054
1744.49441	0.10066
1746.53476	0.10092
1748.57510	0.10105
1750.61544	0.10098
1752.65579	0.10094
1754.69613	0.10084
1756.73648	0.10076
1758.77682	0.10084
1760.81717	0.10095
1762.85751	0.10084
1764.89785	0.10060
1766.93820	0.10069
1768.97854	0.10114
1771.01889	0.10151
1773.05923	0.10148
1775.09958	0.10115
1777.13992	0.10098
1779.18027	0.10109
1781.22061	0.10135
1783.26095	0.10153
1785.30130	0.10145
1787.34164	0.10126
1789.38199	0.10130
1791.42233	0.10166
1793.46268	0.10192
1795.50302	0.10189
1797.54336	0.10177
1799.58371	0.10157
1801.62405	0.10149
1803.66440	0.10165
1805.70474	0.10193
1807.74509	0.10232
1809.78543	0.10265
1811.82577	0.10272
1813.86612	0.10266
1815.90646	0.10259
1817.94681	0.10262
1819.98715	0.10264
1822.02750	0.10255
1824.06784	0.10258
1826.10818	0.10275
1828.14853	0.10297
1830.18887	0.10320
1832.22922	0.10325
1834.26956	0.10318
1836.30991	0.10309
1838.35025	0.10320
1840.39060	0.10340
1842.43094	0.10343
1844.47128	0.10350
1846.51163	0.10373
1848.55197	0.10394
1850.59232	0.10406
1852.63266	0.10403
1854.67301	0.10395
1856.71335	0.10408
1858.75369	0.10442
1860.79404	0.10462
1862.83438	0.10465
1864.87473	0.10465
1866.91507	0.10468
1868.95542	0.10482
1870.99576	0.10499
1873.03610	0.10503
1875.07645	0.10494
1877.11679	0.10456
1879.15714	0.10422
1881.19748	0.10434
1883.23783	0.10465
1885.27817	0.10495
1887.31852	0.10528
1889.35886	0.10548
1891.39920	0.10553
1893.43955	0.10558
1895.47989	0.10550
1897.52024	0.10521
1899.56058	0.10506
1901.60093	0.10529
1903.64127	0.10558
1905.68161	0.10569
1907.72196	0.10580
1909.76230	0.10595
1911.80265	0.10593
1913.84299	0.10589
1915.88334	0.10608
1917.92368	0.10647
1919.96402	0.10680
1922.00437	0.10689
1924.04471	0.10663
1926.08506	0.10630
1928.12540	0.10624
1930.16575	0.10627
1932.20609	0.10642
1934.24643	0.10672
1936.28678	0.10686
1938.32712	0.10686
1940.36747	0.10693
1942.40781	0.10700
1944.44816	0.10700
1946.48850	0.10708
1948.52885	0.10721
1950.56919	0.10724
1952.60953	0.10729
1954.64988	0.10746
1956.69022	0.10768
1958.73057	0.10794
1960.77091	0.10823
1962.81126	0.10848
1964.85160	0.10853
1966.89194	0.10839
1968.93229	0.10819
1970.97263	0.10801
1973.01298	0.10811
1975.05332	0.10835
1977.09367	0.10850
1979.13401	0.10871
1981.17435	0.10883
1983.21470	0.10872
1985.25504	0.10870
1987.29539	0.10876
1989.33573	0.10882
1991.37608	0.10910
1993.41642	0.10934
1995.45677	0.10927
1997.49711	0.10916
1999.53745	0.10913
2001.57780	0.10897
2003.61814	0.10879
2005.65849	0.10887
2007.69883	0.10922
2009.73918	0.10951
2011.77952	0.10952
2013.81986	0.10947
2015.86021	0.10958
2017.90055	0.10980
2019.94090	0.10994
2021.98124	0.11000
2024.02159	0.11007
2026.06193	0.10995
2028.10227	0.10983
2030.14262	0.11012
2032.18296	0.11031
2034.22331	0.11007
2036.26365	0.11002
2038.30400	0.11023
2040.34434	0.11025
2042.38468	0.11018
2044.42503	0.11046
2046.46537	0.11094
2048.50572	0.11115
2050.54606	0.11108
2052.58641	0.11101
2054.62675	0.11095
2056.66710	0.11088
2058.70744	0.11098
2060.74778	0.11121
2062.78813	0.11139
2064.82847	0.11155
2066.86882	0.11166
2068.90916	0.11162
2070.94951	0.11143
2072.98985	0.11135
2075.03019	0.11152
2077.07054	0.11155
2079.11088	0.11136
2081.15123	0.11148
2083.19157	0.11185
2085.23192	0.11187
2087.27226	0.11184
2089.31260	0.11209
2091.35295	0.11220
2093.39329	0.11205
2095.43364	0.11192
2097.47398	0.11197
2099.51433	0.11216
2101.55467	0.11247
2103.59502	0.11283
2105.63536	0.11302
2107.67570	0.11305
2109.71605	0.11303
2111.75639	0.11276
2113.79674	0.11243
2115.83708	0.11248
2117.87743	0.11285
2119.91777	0.11324
2121.95811	0.11355
2123.99846	0.11382
2126.03880	0.11385
2128.07915	0.11350
2130.11949	0.11312
2132.15984	0.11297
2134.20018	0.11300
2136.24052	0.11305
2138.28087	0.11295
2140.32121	0.11294
2142.36156	0.11317
2144.40190	0.11333
2146.44225	0.11339
2148.48259	0.11353
2150.52294	0.11372
2152.56328	0.11381
2154.60362	0.11381
2156.64397	0.11393
2158.68431	0.11420
2160.72466	0.11430
2162.76500	0.11413
2164.80535	0.11411
2166.84569	0.11452
2168.88603	0.11478
2170.92638	0.11450
2172.96672	0.11436
2175.00707	0.11461
2177.04741	0.11496
2179.08776	0.11534
2181.12810	0.11547
2183.16844	0.11534
2185.20879	0.11531
2187.24913	0.11543
2189.28948	0.11543
2191.32982	0.11522
2193.37017	0.11501
2195.41051	0.11512
2197.45085	0.11538
2199.49120	0.11543
2201.53154	0.11540
2203.57189	0.11544
2205.61223	0.11550
2207.65258	0.11552
2209.69292	0.11547
2211.73327	0.11547
2213.77361	0.11567
2215.81395	0.11595
2217.85430	0.11611
2219.89464	0.11613
2221.93499	0.11593
2223.97533	0.11564
2226.01568	0.11557
2228.05602	0.11565
2230.09636	0.11553
2232.13671	0.11528
2234.17705	0.11524
2236.21740	0.11538
2238.25774	0.11550
2240.29809	0.11562
2242.33843	0.11579
2244.37877	0.11593
2246.41912	0.11590
2248.45946	0.11581
2250.49981	0.11584
2252.54015	0.11597
2254.58050	0.11603
2256.62084	0.11607
2258.66119	0.11636
2260.70153	0.11674
2262.74187	0.11678
2264.78222	0.11667
2266.82256	0.11673
2268.86291	0.11672
2270.90325	0.11641
2272.94360	0.11616
2274.98394	0.11629
2277.02428	0.11658
2279.06463	0.11686
2281.10497	0.11716
2283.14532	0.11727
2285.18566	0.11714
2287.22601	0.11693
2289.26635	0.11683
2291.30669	0.11681
2293.34704	0.11670
2295.38738	0.11665
2297.42773	0.11687
2299.46807	0.11719
2301.50842	0.11721
2303.54876	0.11710
2305.58910	0.11720
2307.62945	0.11740
2309.66979	0.11770
2311.71014	0.11795
2313.75048	0.11812
2315.79083	0.11830
2317.83117	0.11845
2319.87152	0.11852
2321.91186	0.11823
2323.95220	0.11790
2325.99255	0.11842
2328.03289	0.11946
2330.07324	0.11978
2332.11358	0.11920
2334.15393	0.11874
2336.19427	0.11874
2338.23461	0.11865
2340.27496	0.11819
2342.31530	0.11821
2344.35565	0.11914
2346.39599	0.11962
2348.43634	0.11921
2350.47668	0.11904
2352.51702	0.11972
2354.55737	0.12053
2356.59771	0.12086
2358.63806	0.12128
2360.67840	0.12174
2362.71875	0.12148
2364.75909	0.12047
2366.79944	0.11973
2368.83978	0.11965
2370.88012	0.11962
2372.92047	0.11939
2374.96081	0.11915
2377.00116	0.11873
2379.04150	0.11824
2381.08185	0.11835
2383.12219	0.11894
2385.16253	0.11930
2387.20288	0.11937
2389.24322	0.11927
2391.28357	0.11871
2393.32391	0.11789
2395.36426	0.11773
2397.40460	0.11835
2399.44494	0.11899
2401.48529	0.11939
2403.52563	0.11958
2405.56598	0.11931
2407.60632	0.11886
2409.64667	0.11870
2411.68701	0.11879
2413.72735	0.11890
2415.76770	0.11908
2417.80804	0.11936
2419.84839	0.11943
2421.88873	0.11943
2423.92908	0.11951
2425.96942	0.11939
2428.00977	0.11909
2430.05011	0.11892
2432.09045	0.11885
2434.13080	0.11878
2436.17114	0.11889
2438.21149	0.11917
2440.25183	0.11933
2442.29218	0.11930
2444.33252	0.11939
2446.37286	0.11960
2448.41321	0.11975
2450.45355	0.11978
2452.49390	0.11970
2454.53424	0.11967
2456.57459	0.11981
2458.61493	0.11992
2460.65527	0.11964
2462.69562	0.11901
2464.73596	0.11868
2466.77631	0.11890
2468.81665	0.11932
2470.85700	0.11973
2472.89734	0.11999
2474.93769	0.11998
2476.97803	0.11973
2479.01837	0.11947
2481.05872	0.11929
2483.09906	0.11907
2485.13941	0.11891
2487.17975	0.11907
2489.22010	0.11940
2491.26044	0.11950
2493.30078	0.11933
2495.34113	0.11920
2497.38147	0.11955
2499.42182	0.12005
2501.46216	0.12017
2503.50251	0.12003
2505.54285	0.11979
2507.58319	0.11972
2509.62354	0.11995
2511.66388	0.12016
2513.70423	0.12021
2515.74457	0.12025
2517.78492	0.12024
2519.82526	0.12013
2521.86561	0.12009
2523.90595	0.12014
2525.94629	0.12042
2527.98664	0.12076
2530.02698	0.12066
2532.06733	0.12023
2534.10767	0.12000
2536.14802	0.12009
2538.18836	0.12029
2540.22870	0.12050
2542.26905	0.12048
2544.30939	0.12030
2546.34974	0.12044
2548.39008	0.12069
2550.43043	0.12057
2552.47077	0.12030
2554.51111	0.12023
2556.55146	0.12023
2558.59180	0.12007
2560.63215	0.11987
2562.67249	0.11982
2564.71284	0.12001
2566.75318	0.12033
2568.79352	0.12035
2570.83387	0.12004
2572.87421	0.12009
2574.91456	0.12046
2576.95490	0.12047
2578.99525	0.12036
2581.03559	0.12055
2583.07594	0.12079
2585.11628	0.12096
2587.15662	0.12109
2589.19697	0.12112
2591.23731	0.12121
2593.27766	0.12123
2595.31800	0.12085
2597.35835	0.12057
2599.39869	0.12084
2601.43903	0.12098
2603.47938	0.12080
2605.51972	0.12094
2607.56007	0.12112
2609.60041	0.12090
2611.64076	0.12058
2613.68110	0.12031
2615.72144	0.12007
2617.76179	0.12014
2619.80213	0.12039
2621.84248	0.12048
2623.88282	0.12023
2625.92317	0.11994
2627.96351	0.12010
2630.00386	0.12039
2632.04420	0.12027
2634.08454	0.12019
2636.12489	0.12072
2638.16523	0.12143
2640.20558	0.12166
2642.24592	0.12144
2644.28627	0.12131
2646.32661	0.12154
2648.36695	0.12180
2650.40730	0.12171
2652.44764	0.12127
2654.48799	0.12100
2656.52833	0.12116
2658.56868	0.12129
2660.60902	0.12123
2662.64936	0.12119
2664.68971	0.12129
2666.73005	0.12152
2668.77040	0.12146
2670.81074	0.12096
2672.85109	0.12060
2674.89143	0.12077
2676.93177	0.12118
2678.97212	0.12135
2681.01246	0.12123
2683.05281	0.12094
2685.09315	0.12054
2687.13350	0.12025
2689.17384	0.12010
2691.21419	0.12025
2693.25453	0.12073
2695.29487	0.12119
2697.33522	0.12125
2699.37556	0.12101
2701.41591	0.12089
2703.45625	0.12105
2705.49660	0.12120
2707.53694	0.12114
2709.57728	0.12111
2711.61763	0.12110
2713.65797	0.12082
2715.69832	0.12059
2717.73866	0.12072
2719.77901	0.12097
2721.81935	0.12116
2723.85969	0.12128
2725.90004	0.12107
2727.94038	0.12046
2729.98073	0.12009
2732.02107	0.12037
2734.06142	0.12076
2736.10176	0.12085
2738.14211	0.12072
2740.18245	0.12045
2742.22279	0.12053
2744.26314	0.12081
2746.30348	0.12065
2748.34383	0.12038
2750.38417	0.12050
2752.42452	0.12069
2754.46486	0.12070
2756.50520	0.12070
2758.54555	0.12069
2760.58589	0.12071
2762.62624	0.12071
2764.66658	0.12058
2766.70693	0.12070
2768.74727	0.12111
2770.78761	0.12127
2772.82796	0.12109
2774.86830	0.12088
2776.90865	0.12074
2778.94899	0.12056
2780.98934	0.12033
2783.02968	0.12029
2785.07002	0.12037
2787.11037	0.12030
2789.15071	0.12023
2791.19106	0.12024
2793.23140	0.12020
2795.27175	0.12047
2797.31209	0.12108
2799.35244	0.12127
2801.39278	0.12091
2803.43312	0.12047
2805.47347	0.12013
2807.51381	0.12010
2809.55416	0.12043
2811.59450	0.12059
2813.63485	0.12033
2815.67519	0.12015
2817.71553	0.12028
2819.75588	0.12053
2821.79622	0.12077
2823.83657	0.12075
2825.87691	0.12040
2827.91726	0.11976
2829.95760	0.11932
2831.99794	0.11976
2834.03829	0.12067
2836.07863	0.12110
2838.11898	0.12069
2840.15932	0.12014
2842.19967	0.12006
2844.24001	0.12022
2846.28036	0.12021
2848.32070	0.11970
2850.36104	0.11921
2852.40139	0.11938
2854.44173	0.11965
2856.48208	0.11967
2858.52242	0.11980
2860.56277	0.11990
2862.60311	0.11969
2864.64345	0.11926
2866.68380	0.11896
2868.72414	0.11923
2870.76449	0.11977
2872.80483	0.11988
2874.84518	0.11950
2876.88552	0.11930
2878.92586	0.11973
2880.96621	0.12027
2883.00655	0.12045
2885.04690	0.12043
2887.08724	0.12027
2889.12759	0.12001
2891.16793	0.11997
2893.20828	0.12007
2895.24862	0.12021
2897.28896	0.12044
2899.32931	0.12042
2901.36965	0.12013
2903.41000	0.11994
2905.45034	0.11981
2907.49069	0.11952
2909.53103	0.11916
2911.57137	0.11907
2913.61172	0.11920
2915.65206	0.11939
2917.69241	0.11939
2919.73275	0.11911
2921.77310	0.11898
2923.81344	0.11900
2925.85378	0.11907
2927.89413	0.11933
2929.93447	0.11964
2931.97482	0.11998
2934.01516	0.12027
2936.05551	0.12024
2938.09585	0.12005
2940.13619	0.11999
2942.17654	0.12010
2944.21688	0.12037
2946.25723	0.12058
2948.29757	0.12039
2950.33792	0.11995
2952.37826	0.11974
2954.41861	0.11966
2956.45895	0.11961
2958.49929	0.11995
2960.53964	0.12040
2962.57998	0.12062
2964.62033	0.12081
2966.66067	0.12093
2968.70102	0.12079
2970.74136	0.12078
2972.78170	0.12112
2974.82205	0.12145
2976.86239	0.12155
2978.90274	0.12173
2980.94308	0.12225
2982.98343	0.12266
2985.02377	0.12260
2987.06411	0.12233
2989.10446	0.12215
2991.14480	0.12197
2993.18515	0.12190
2995.22549	0.12228
2997.26584	0.12265
2999.30618	0.12263
3001.34653	0.12266
3003.38687	0.12271
3005.42721	0.12257
3007.46756	0.12276
3009.50790	0.12334
3011.54825	0.12369
3013.58859	0.12365
3015.62894	0.12348
3017.66928	0.12361
3019.70962	0.12389
3021.74997	0.12385
3023.79031	0.12334
3025.83066	0.12266
3027.87100	0.12239
3029.91135	0.12262
3031.95169	0.12282
3033.99203	0.12273
3036.03238	0.12267
3038.07272	0.12268
3040.11307	0.12272
3042.15341	0.12290
3044.19376	0.12288
3046.23410	0.12262
3048.27444	0.12292
3050.31479	0.12371
3052.35513	0.12412
3054.39548	0.12400
3056.43582	0.12377
3058.47617	0.12369
3060.51651	0.12383
3062.55686	0.12397
3064.59720	0.12370
3066.63754	0.12353
3068.67789	0.12401
3070.71823	0.12433
3072.75858	0.12390
3074.79892	0.12348
3076.83927	0.12369
3078.87961	0.12382
3080.91995	0.12325
3082.96030	0.12260
3085.00064	0.12254
3087.04099	0.12305
3089.08133	0.12383
3091.12168	0.12425
3093.16202	0.12398
3095.20236	0.12355
3097.24271	0.12347
3099.28305	0.12371
3101.32340	0.12397
3103.36374	0.12434
3105.40409	0.12468
3107.44443	0.12440
3109.48478	0.12389
3111.52512	0.12374
3113.56546	0.12363
3115.60581	0.12351
3117.64615	0.12349
3119.68650	0.12339
3121.72684	0.12342
3123.76719	0.12368
3125.80753	0.12355
3127.84787	0.12322
3129.88822	0.12332
3131.92856	0.12369
3133.96891	0.12400
3136.00925	0.12399
3138.04960	0.12366
3140.08994	0.12354
3142.13028	0.12383
3144.17063	0.12405
3146.21097	0.12395
3148.25132	0.12386
3150.29166	0.12387
3152.33201	0.12380
3154.37235	0.12377
3156.41269	0.12379
3158.45304	0.12349
3160.49338	0.12307
3162.53373	0.12294
3164.57407	0.12343
3166.61442	0.12417
3168.65476	0.12405
3170.69511	0.12327
3172.73545	0.12298
3174.77579	0.12339
3176.81614	0.12386
3178.85648	0.12363
3180.89683	0.12268
3182.93717	0.12197
3184.97752	0.12219
3187.01786	0.12259
3189.05820	0.12244
3191.09855	0.12221
3193.13889	0.12238
3195.17924	0.12285
3197.21958	0.12341
3199.25993	0.12365
3201.30027	0.12355
3203.34061	0.12361
3205.38096	0.12368
3207.42130	0.12343
3209.46165	0.12331
3211.50199	0.12343
3213.54234	0.12345
3215.58268	0.12350
3217.62303	0.12356
3219.66337	0.12367
3221.70371	0.12381
3223.74406	0.12360
3225.78440	0.12308
3227.82475	0.12260
3229.86509	0.12228
3231.90544	0.12247
3233.94578	0.12317
3235.98612	0.12340
3238.02647	0.12332
3240.06681	0.12380
3242.10716	0.12427
3244.14750	0.12419
3246.18785	0.12385
3248.22819	0.12360
3250.26853	0.12373
3252.30888	0.12373
3254.34922	0.12319
3256.38957	0.12291
3258.42991	0.12344
3260.47026	0.12415
3262.51060	0.12412
3264.55095	0.12345
3266.59129	0.12309
3268.63163	0.12324
3270.67198	0.12340
3272.71232	0.12325
3274.75267	0.12287
3276.79301	0.12268
3278.83336	0.12278
3280.87370	0.12277
3282.91404	0.12276
3284.95439	0.12310
3286.99473	0.12360
3289.03508	0.12397
3291.07542	0.12413
3293.11577	0.12400
3295.15611	0.12374
3297.19645	0.12355
3299.23680	0.12341
3301.27714	0.12327
3303.31749	0.12335
3305.35783	0.12362
3307.39818	0.12374
3309.43852	0.12362
3311.47886	0.12317
3313.51921	0.12265
3315.55955	0.12267
3317.59990	0.12307
3319.64024	0.12326
3321.68059	0.12306
3323.72093	0.12284
3325.76128	0.12296
3327.80162	0.12311
3329.84196	0.12316
3331.88231	0.12343
3333.92265	0.12374
3335.96300	0.12382
3338.00334	0.12358
3340.04369	0.12316
3342.08403	0.12301
3344.12437	0.12333
3346.16472	0.12348
3348.20506	0.12305
3350.24541	0.12264
3352.28575	0.12285
3354.32610	0.12335
3356.36644	0.12355
3358.40678	0.12335
3360.44713	0.12299
3362.48747	0.12280
3364.52782	0.12287
3366.56816	0.12294
3368.60851	0.12281
3370.64885	0.12275
3372.68920	0.12302
3374.72954	0.12339
3376.76988	0.12360
3378.81023	0.12357
3380.85057	0.12346
3382.89092	0.12344
3384.93126	0.12372
3386.97161	0.12422
3389.01195	0.12438
3391.05229	0.12415
3393.09264	0.12381
3395.13298	0.12350
3397.17333	0.12332
3399.21367	0.12321
3401.25402	0.12301
3403.29436	0.12298
3405.33470	0.12313
3407.37505	0.12294
3409.41539	0.12293
3411.45574	0.12374
3413.49608	0.12420
3415.53643	0.12377
3417.57677	0.12328
3419.61711	0.12311
3421.65746	0.12322
3423.69780	0.12334
3425.73815	0.12338
3427.77849	0.12346
3429.81884	0.12376
3431.85918	0.12426
3433.89953	0.12434
3435.93987	0.12381
3437.98021	0.12339
3440.02056	0.12377
3442.06090	0.12440
3444.10125	0.12443
3446.14159	0.12411
3448.18194	0.12384
3450.22228	0.12370
3452.26262	0.12386
3454.30297	0.12425
3456.34331	0.12465
3458.38366	0.12496
3460.42400	0.12485
3462.46435	0.12447
3464.50469	0.12439
3466.54503	0.12439
3468.58538	0.12430
3470.62572	0.12409
3472.66607	0.12378
3474.70641	0.12371
3476.74676	0.12408
3478.78710	0.12464
3480.82745	0.12480
3482.86779	0.12439
3484.90813	0.12422
3486.94848	0.12477
3488.98882	0.12535
3491.02917	0.12537
3493.06951	0.12539
3495.10986	0.12575
3497.15020	0.12585
3499.19054	0.12542
3501.23089	0.12492
3503.27123	0.12428
3505.31158	0.12339
3507.35192	0.12323
3509.39227	0.12429
3511.43261	0.12547
3513.47295	0.12540
3515.51330	0.12441
3517.55364	0.12396
3519.59399	0.12404
3521.63433	0.12398
3523.67468	0.12411
3525.71502	0.12443
3527.75536	0.12483
3529.79571	0.12516
3531.83605	0.12511
3533.87640	0.12483
3535.91674	0.12450
3537.95709	0.12453
3539.99743	0.12509
3542.03778	0.12555
3544.07812	0.12572
3546.11846	0.12573
3548.15881	0.12535
3550.19915	0.12469
3552.23950	0.12429
3554.27984	0.12462
3556.32019	0.12540
3558.36053	0.12589
3560.40087	0.12561
3562.44122	0.12483
3564.48156	0.12487
3566.52191	0.12605
3568.56225	0.12668
3570.60260	0.12644
3572.64294	0.12611
3574.68328	0.12583
3576.72363	0.12585
3578.76397	0.12605
3580.80432	0.12612
3582.84466	0.12615
3584.88501	0.12610
3586.92535	0.12628
3588.96570	0.12671
3591.00604	0.12704
3593.04638	0.12735
3595.08673	0.12746
3597.12707	0.12720
3599.16742	0.12693
3601.20776	0.12695
3603.24811	0.12693
3605.28845	0.12678
3607.32879	0.12702
3609.36914	0.12763
3611.40948	0.12784
3613.44983	0.12760
3615.49017	0.12754
3617.53052	0.12810
3619.57086	0.12861
3621.61120	0.12817
3623.65155	0.12730
3625.69189	0.12653
3627.73224	0.12628
3629.77258	0.12666
3631.81293	0.12719
3633.85327	0.12775
3635.89362	0.12806
3637.93396	0.12797
3639.97430	0.12745
3642.01465	0.12701
3644.05499	0.12700
3646.09534	0.12703
3648.13568	0.12712
3650.17603	0.12748
3652.21637	0.12739
3654.25671	0.12696
3656.29706	0.12695
3658.33740	0.12739
3660.37775	0.12767
3662.41809	0.12746
3664.45844	0.12715
3666.49878	0.12736
3668.53912	0.12777
3670.57947	0.12792
3672.61981	0.12805
3674.66016	0.12882
3676.70050	0.12962
3678.74085	0.12918
3680.78119	0.12838
3682.82153	0.12806
3684.86188	0.12833
3686.90222	0.12849
3688.94257	0.12797
3690.98291	0.12780
3693.02326	0.12835
3695.06360	0.12892
3697.10395	0.12912
3699.14429	0.12872
3701.18463	0.12819
3703.22498	0.12805
3705.26532	0.12809
3707.30567	0.12823
3709.34601	0.12841
3711.38636	0.12840
3713.42670	0.12817
3715.46704	0.12827
3717.50739	0.12881
3719.54773	0.12927
3721.58808	0.12913
3723.62842	0.12871
3725.66877	0.12871
3727.70911	0.12856
3729.74945	0.12787
3731.78980	0.12774
3733.83014	0.12875
3735.87049	0.12935
3737.91083	0.12861
3739.95118	0.12759
3741.99152	0.12723
3744.03187	0.12824
3746.07221	0.12990
3748.11255	0.13079
3750.15290	0.13078
3752.19324	0.12988
3754.23359	0.12938
3756.27393	0.12933
3758.31428	0.12941
3760.35462	0.12960
3762.39496	0.12938
3764.43531	0.12886
3766.47565	0.12845
3768.51600	0.12816
3770.55634	0.12835
3772.59669	0.12873
3774.63703	0.12850
3776.67737	0.12817
3778.71772	0.12831
3780.75806	0.12829
3782.79841	0.12817
3784.83875	0.12839
3786.87910	0.12852
3788.91944	0.12854
3790.95978	0.12852
3793.00013	0.12814
3795.04047	0.12773
3797.08082	0.12810
3799.12116	0.12875
3801.16151	0.12877
3803.20185	0.12866
3805.24220	0.12905
3807.28254	0.12946
3809.32288	0.12891
3811.36323	0.12814
3813.40357	0.12825
3815.44392	0.12868
3817.48426	0.12822
3819.52461	0.12772
3821.56495	0.12820
3823.60529	0.12904
3825.64564	0.13008
3827.68598	0.13082
3829.72633	0.13015
3831.76667	0.12913
3833.80702	0.12865
3835.84736	0.12827
3837.88770	0.12847
3839.92805	0.12931
3841.96839	0.12998
3844.00874	0.13011
3846.04908	0.12998
3848.08943	0.13034
3850.12977	0.13076
3852.17012	0.13003
3854.21046	0.12888
3856.25080	0.12943
3858.29115	0.13029
3860.33149	0.13034
3862.37184	0.12951
3864.41218	0.12874
3866.45253	0.12846
3868.49287	0.12859
3870.53321	0.12907
3872.57356	0.12897
3874.61390	0.12858
3876.65425	0.12874
3878.69459	0.12968
3880.73494	0.13077
3882.77528	0.13109
3884.81562	0.13073
3886.85597	0.12981
3888.89631	0.12924
3890.93666	0.12910
3892.97700	0.12893
3895.01735	0.12900
3897.05769	0.12934
3899.09803	0.12964
3901.13838	0.12922
3903.17872	0.12818
3905.21907	0.12809
3907.25941	0.12925
3909.29976	0.13036
3911.34010	0.13059
3913.38045	0.13012
3915.42079	0.12984
3917.46113	0.12968
3919.50148	0.12929
3921.54182	0.12916
3923.58217	0.12936
3925.62251	0.12971
3927.66286	0.12972
3929.70320	0.12954
3931.74354	0.12980
3933.78389	0.12973
3935.82423	0.12898
3937.86458	0.12864
3939.90492	0.12882
3941.94527	0.12884
3943.98561	0.12879
3946.02595	0.12909
3948.06630	0.12970
3950.10664	0.13017
3952.14699	0.13005
3954.18733	0.12959
3956.22768	0.12921
3958.26802	0.12902
3960.30837	0.12904
3962.34871	0.12910
3964.38905	0.12903
3966.42940	0.12904
3968.46974	0.12900
3970.51009	0.12874
3972.55043	0.12879
3974.59078	0.12914
3976.63112	0.12888
3978.67146	0.12824
3980.71181	0.12854
3982.75215	0.12971
3984.79250	0.13042
3986.83284	0.13020
3988.87319	0.12960
3990.91353	0.12900
3992.95387	0.12847
3994.99422	0.12815
3997.03456	0.12802
3999.07491	0.12837
4001.11525	0.12927
4003.15560	0.12990
4005.19594	0.12983
4007.23629	0.12946
4009.27663	0.12919
4011.31697	0.12910
4013.35732	0.12892
4015.39766	0.12881
4017.43801	0.12899
4019.47835	0.12919
4021.51870	0.12981
4023.55904	0.13067
4025.59938	0.13087
4027.63973	0.13045
4029.68007	0.12974
4031.72042	0.12925
4033.76076	0.12918
4035.80111	0.12915
4037.84145	0.12892
4039.88179	0.12853
4041.92214	0.12834
4043.96248	0.12856
4046.00283	0.12886
4048.04317	0.12899
4050.08352	0.12935
4052.12386	0.12991
4054.16420	0.12994
4056.20455	0.12962
4058.24489	0.12966
4060.28524	0.13001
4062.32558	0.13004
4064.36593	0.12950
4066.40627	0.12885
4068.44662	0.12832
4070.48696	0.12790
4072.52730	0.12788
4074.56765	0.12822
4076.60799	0.12854
4078.64834	0.12849
4080.68868	0.12836
4082.72903	0.12846
4084.76937	0.12847
4086.80971	0.12863
4088.85006	0.12937
4090.89040	0.12993
4092.93075	0.12995
4094.97109	0.12982
4097.01144	0.12948
4099.05178	0.12931
4101.09212	0.12992
4103.13247	0.13014
4105.17281	0.12920
4107.21316	0.12878
4109.25350	0.12961
4111.29385	0.13025
4113.33419	0.13020
4115.37454	0.13033
4117.41488	0.13054
4119.45522	0.13006
4121.49557	0.12948
4123.53591	0.12906
4125.57626	0.12871
4127.61660	0.12893
4129.65695	0.12939
4131.69729	0.12940
4133.73763	0.12936
4135.77798	0.12976
4137.81832	0.12974
4139.85867	0.12927
4141.89901	0.12930
4143.93936	0.12953
4145.97970	0.12945
4148.02004	0.12924
4150.06039	0.12912
4152.10073	0.12938
4154.14108	0.12996
4156.18142	0.13015
4158.22177	0.12965
4160.26211	0.12928
4162.30245	0.12950
4164.34280	0.12983
4166.38314	0.12990
4168.42349	0.12932
4170.46383	0.12845
4172.50418	0.12826
4174.54452	0.12826
4176.58487	0.12790
4178.62521	0.12782
4180.66555	0.12843
4182.70590	0.12947
4184.74624	0.13045
4186.78659	0.13086
4188.82693	0.13059
4190.86728	0.12980
4192.90762	0.12872
4194.94796	0.12785
4196.98831	0.12775
4199.02865	0.12842
4201.06900	0.12920
4203.10934	0.12940
4205.14969	0.12928
4207.19003	0.12944
4209.23037	0.12937
4211.27072	0.12908
4213.31106	0.12944
4215.35141	0.12984
4217.39175	0.12939
4219.43210	0.12863
4221.47244	0.12866
4223.51279	0.12971
4225.55313	0.13041
4227.59347	0.12988
4229.63382	0.12943
4231.67416	0.12974
4233.71451	0.12985
4235.75485	0.12967
4237.79520	0.12961
4239.83554	0.12922
4241.87588	0.12885
4243.91623	0.12940
4245.95657	0.13003
4247.99692	0.13008
4250.03726	0.13004
4252.07761	0.12966
4254.11795	0.12875
4256.15829	0.12810
4258.19864	0.12809
4260.23898	0.12862
4262.27933	0.12951
4264.31967	0.13002
4266.36002	0.12938
4268.40036	0.12849
4270.44070	0.12857
4272.48105	0.12901
4274.52139	0.12906
4276.56174	0.12897
4278.60208	0.12916
4280.64243	0.12950
4282.68277	0.12957
4284.72312	0.12952
4286.76346	0.12974
4288.80380	0.13027
4290.84415	0.13040
4292.88449	0.12987
4294.92484	0.12971
4296.96518	0.13031
4299.00553	0.13044
4301.04587	0.12970
4303.08621	0.12905
4305.12656	0.12862
4307.16690	0.12823
4309.20725	0.12854
4311.24759	0.12941
4313.28794	0.12943
4315.32828	0.12884
4317.36862	0.12862
4319.40897	0.12874
4321.44931	0.12916
4323.48966	0.12963
4325.53000	0.12992
4327.57035	0.13007
4329.61069	0.13000
4331.65104	0.13009
4333.69138	0.13020
4335.73172	0.12955
4337.77207	0.12875
4339.81241	0.12870
4341.85276	0.12936
4343.89310	0.13044
4345.93345	0.13105
4347.97379	0.13072
4350.01413	0.12998
4352.05448	0.12939
4354.09482	0.12881
4356.13517	0.12830
4358.17551	0.12855
4360.21586	0.12907
4362.25620	0.12906
4364.29654	0.12921
4366.33689	0.12943
4368.37723	0.12916
4370.41758	0.12934
4372.45792	0.12983
4374.49827	0.12985
4376.53861	0.12984
4378.57896	0.12972
4380.61930	0.12909
4382.65964	0.12863
4384.69999	0.12889
4386.74033	0.12939
4388.78068	0.12952
4390.82102	0.12935
4392.86137	0.12939
4394.90171	0.12977
4396.94205	0.13021
4398.98240	0.13015
4401.02274	0.12963
4403.06309	0.12924
4405.10343	0.12867
4407.14378	0.12824
4409.18412	0.12868
4411.22446	0.12926
4413.26481	0.12954
4415.30515	0.13000
4417.34550	0.13046
4419.38584	0.13042
4421.42619	0.13007
4423.46653	0.12997
4425.50687	0.12965
4427.54722	0.12867
4429.58756	0.12856
4431.62791	0.12968
4433.66825	0.12999
4435.70860	0.12928
4437.74894	0.12919
4439.78929	0.12931
4441.82963	0.12898
4443.86997	0.12930
4445.91032	0.12979
4447.95066	0.12963
4449.99101	0.12950
4452.03135	0.12951
4454.07170	0.12952
4456.11204	0.12963
4458.15238	0.12994
4460.19273	0.13010
4462.23307	0.12987
4464.27342	0.12949
4466.31376	0.12897
4468.35411	0.12850
4470.39445	0.12791
4472.43479	0.12699
4474.47514	0.12693
4476.51548	0.12819
4478.55583	0.12927
4480.59617	0.12940
4482.63652	0.12951
4484.67686	0.13029
4486.71721	0.13096
4488.75755	0.13096
4490.79789	0.13080
4492.83824	0.13110
4494.87858	0.13164
4496.91893	0.13150
4498.95927	0.13098
4500.99962	0.13084
4503.03996	0.13058
4505.08030	0.13011
4507.12065	0.12996
4509.16099	0.12989
4511.20134	0.12984
4513.24168	0.13009
4515.28203	0.13051
4517.32237	0.13079
4519.36271	0.13091
4521.40306	0.13113
4523.44340	0.13104
4525.48375	0.13067
4527.52409	0.13054
4529.56444	0.13017
4531.60478	0.12957
4533.64512	0.12960
4535.68547	0.12975
4537.72581	0.12909
4539.76616	0.12856
4541.80650	0.12939
4543.84685	0.13040
4545.88719	0.13062
4547.92754	0.13107
4549.96788	0.13126
4552.00822	0.13021
4554.04857	0.12894
4556.08891	0.12835
4558.12926	0.12869
4560.16960	0.12974
4562.20995	0.13059
4564.25029	0.13076
4566.29063	0.13075
4568.33098	0.13081
4570.37132	0.13047
4572.41167	0.13015
4574.45201	0.13020
4576.49236	0.13020
4578.53270	0.12991
4580.57304	0.12934
4582.61339	0.12957
4584.65373	0.13050
4586.69408	0.13033
4588.73442	0.12948
4590.77477	0.12931
4592.81511	0.12999
4594.85546	0.13098
4596.89580	0.13175
4598.93614	0.13191
4600.97649	0.13068
4603.01683	0.12899
4605.05718	0.12827
4607.09752	0.12818
4609.13787	0.12884
4611.17821	0.13016
4613.21855	0.13082
4615.25890	0.13006
4617.29924	0.12909
4619.33959	0.12973
4621.37993	0.13124
4623.42028	0.13132
4625.46062	0.13045
4627.50096	0.13040
4629.54131	0.13053
4631.58165	0.13007
4633.62200	0.12993
4635.66234	0.13010
4637.70269	0.13015
4639.74303	0.13056
4641.78337	0.13103
4643.82372	0.13089
4645.86406	0.13045
4647.90441	0.12994
4649.94475	0.12969
4651.98510	0.13036
4654.02544	0.13089
4656.06579	0.12997
4658.10613	0.12838
4660.14647	0.12784
4662.18682	0.12852
4664.22716	0.12881
4666.26751	0.12838
4668.30785	0.12865
4670.34820	0.12933
4672.38854	0.12906
4674.42888	0.12901
4676.46923	0.12997
4678.50957	0.13051
4680.54992	0.13045
4682.59026	0.13009
4684.63061	0.12949
4686.67095	0.12966
4688.71129	0.13025
4690.75164	0.12953
4692.79198	0.12839
4694.83233	0.12854
4696.87267	0.12895
4698.91302	0.12982
4700.95336	0.13215
4702.99371	0.13329
4705.03405	0.13129
4707.07439	0.12956
4709.11474	0.13030
4711.15508	0.13074
4713.19543	0.12967
4715.23577	0.12899
4717.27612	0.12946
4719.31646	0.13068
4721.35680	0.13173
4723.39715	0.13170
4725.43749	0.13112
4727.47784	0.13066
4729.51818	0.13036
4731.55853	0.13046
4733.59887	0.13092
4735.63921	0.13099
4737.67956	0.13080
4739.71990	0.13148
4741.76025	0.13250
4743.80059	0.13174
4745.84094	0.12973
4747.88128	0.12928
4749.92163	0.13017
4751.96197	0.13085
4754.00231	0.13113
4756.04266	0.13044
4758.08300	0.12877
4760.12335	0.12780
4762.16369	0.12774
4764.20404	0.12766
4766.24438	0.12834
4768.28472	0.12961
4770.32507	0.13069
4772.36541	0.13179
4774.40576	0.13250
4776.44610	0.13211
4778.48645	0.13073
4780.52679	0.12984
4782.56713	0.13020
4784.60748	0.12985
4786.64782	0.12820
4788.68817	0.12812
4790.72851	0.13065
4792.76886	0.13337
4794.80920	0.13457
4796.84954	0.13356
4798.88989	0.13053
4800.93023	0.12808
4802.97058	0.12755
4805.01092	0.12799
4807.05127	0.12902
4809.09161	0.13041
4811.13196	0.13247
4813.17230	0.13358
4815.21264	0.13149
4817.25299	0.12893
4819.29333	0.12843
4821.33368	0.12878
4823.37402	0.12926
4825.41437	0.13059
4827.45471	0.13195
4829.49505	0.13185
4831.53540	0.13080
4833.57574	0.12965
4835.61609	0.12918
4837.65643	0.12968
4839.69678	0.12999
4841.73712	0.13000
4843.77746	0.13031
4845.81781	0.13010
4847.85815	0.12960
4849.89850	0.13018
4851.93884	0.13133
4853.97919	0.13268
4856.01953	0.13434
4858.05988	0.13452
4860.10022	0.13261
4862.14056	0.13133
4864.18091	0.13174
4866.22125	0.13218
4868.26160	0.13155
4870.30194	0.13008
4872.34229	0.12919
4874.38263	0.12944
4876.42297	0.13017
4878.46332	0.13033
4880.50366	0.12937
4882.54401	0.12919
4884.58435	0.13074
4886.62470	0.13261
4888.66504	0.13362
4890.70538	0.13331
4892.74573	0.13182
4894.78607	0.13011
4896.82642	0.13021
4898.86676	0.13196
4900.90711	0.13202
4902.94745	0.13065
4904.98779	0.13066
4907.02814	0.13207
4909.06848	0.13301
4911.10883	0.13265
4913.14917	0.13275
4915.18952	0.13378
4917.22986	0.13427
4919.27021	0.13406
4921.31055	0.13355
4923.35089	0.13362
4925.39124	0.13353
4927.43158	0.13145
4929.47193	0.13038
4931.51227	0.13231
4933.55262	0.13354
4935.59296	0.13310
4937.63330	0.13244
4939.67365	0.13060
4941.71399	0.12907
4943.75434	0.12998
4945.79468	0.13018
4947.83503	0.12741
4949.87537	0.12555
4951.91571	0.12779
4953.95606	0.13064
4955.99640	0.13198
4958.03675	0.13269
4960.07709	0.13117
4962.11744	0.12927
4964.15778	0.12985
4966.19813	0.13129
4968.23847	0.13187
4970.27881	0.13148
4972.31916	0.13142
4974.35950	0.13307
4976.39985	0.13435
4978.44019	0.13292
4980.48054	0.13099
4982.52088	0.13086
4984.56122	0.13228
4986.60157	0.13526
4988.64191	0.13813
4990.68226	0.13699
4992.72260	0.13251
4994.76295	0.13085
4996.80329	0.13280
4998.84363	0.13384
5000.88398	0.13393
5002.92432	0.13423
5004.96467	0.13280
5007.00501	0.13069
5009.04536	0.13037
5011.08570	0.13128
5013.12604	0.13293
5015.16639	0.13488
5017.20673	0.13585
5019.24708	0.13629
5021.28742	0.13651
5023.32777	0.13560
5025.36811	0.13350
5027.40846	0.13036
5029.44880	0.12809
5031.48914	0.12892
5033.52949	0.13191
5035.56983	0.13453
5037.61018	0.13469
5039.65052	0.13281
5041.69087	0.13031
5043.73121	0.12789
5045.77155	0.12730
5047.81190	0.12949
5049.85224	0.13159
5051.89259	0.13145
5053.93293	0.13098
5055.97328	0.13080
5058.01362	0.13019
5060.05396	0.12946
5062.09431	0.12895
5064.13465	0.13005
5066.17500	0.13167
5068.21534	0.13195
5070.25569	0.13352
5072.29603	0.13610
5074.33638	0.13534
5076.37672	0.13181
5078.41706	0.13143
5080.45741	0.13503
5082.49775	0.13718
5084.53810	0.13679
5086.57844	0.13557
5088.61879	0.13347
5090.65913	0.13130
5092.69947	0.13006
5094.73982	0.13019
5096.78016	0.13256
5098.82051	0.13497
5100.86085	0.13343
5102.90120	0.13164
5104.94154	0.13429
5106.98188	0.13793
5109.02223	0.13807
5111.06257	0.13598
5113.10292	0.13713
5115.14326	0.14014
5117.18361	0.13938
5119.22395	0.13547
5121.26430	0.13247
5123.30464	0.13284
5125.34498	0.13619
5127.38533	0.13920
5129.42567	0.13665
5131.46602	0.13134
5133.50636	0.13067
5135.54671	0.13239
5137.58705	0.13179
5139.62739	0.12902
5141.66774	0.12757
5143.70808	0.13095
5145.74843	0.13539
5147.78877	0.13522
5149.82912	0.13158
5151.86946	0.12958
5153.90980	0.12979
5155.95015	0.12954
5157.99049	0.12875
5160.03084	0.13002
5162.07118	0.13429
5164.11153	0.13840
5166.15187	0.13841
5168.19221	0.13635
5170.23256	0.13593
5172.27290	0.13669
5174.31325	0.13789
5176.35359	0.13735
5178.39394	0.13491
5180.43428	0.13484
5182.47463	0.13550
5184.51497	0.13325
5186.55531	0.13058
5188.59566	0.13242
5190.63600	0.13651
5192.67635	0.13700
5194.71669	0.13298
5196.75704	0.12841
5198.79738	0.12888
5200.83772	0.13377
5202.87807	0.13700
5204.91841	0.13517
5206.95876	0.13516
5208.99910	0.13859
5211.03945	0.13679
5213.07979	0.13196
5215.12013	0.13054
5217.16048	0.13044
5219.20082	0.12937
5221.24117	0.13010
5223.28151	0.13357
5225.32186	0.13685
5227.36220	0.13786
5229.40255	0.13875
5231.44289	0.14009
5233.48323	0.13886
5235.52358	0.13565
5237.56392	0.13244
5239.60427	0.13173
5241.64461	0.13559
5243.68496	0.13920
5245.72530	0.13571
5247.76564	0.12980
5249.80599	0.13198
5251.84633	0.13909
5253.88668	0.14149
5255.92702	0.13652
5257.96737	0.13188
5260.00771	0.13358
5262.04805	0.13514
5264.08840	0.13068
5266.12874	0.12672
5268.16909	0.12724
5270.20943	0.12758
5272.24978	0.12687
5274.29012	0.12637
5276.33046	0.12495
5278.37081	0.12478
5280.41115	0.13110
5282.45150	0.14268
5284.49184	0.14895
5286.53219	0.14829
5288.57253	0.14544
5290.61288	0.14056
5292.65322	0.13834
5294.69356	0.13862
5296.73391	0.13800
5298.77425	0.14202
5300.81460	0.14679
5302.85494	0.14426
5304.89529	0.13903
5306.93563	0.13623
5308.97597	0.13678
5311.01632	0.13902
5313.05666	0.13885
5315.09701	0.13419
5317.13735	0.12942
5319.17770	0.13039
5321.21804	0.13362
5323.25838	0.13446
5325.29873	0.13644
5327.33907	0.14050
5329.37942	0.14046
5331.41976	0.13771
5333.46011	0.13764
5335.50045	0.13554
5337.54080	0.12979
5339.58114	0.12790
5341.62148	0.13030
5343.66183	0.13299
5345.70217	0.13438
5347.74252	0.13338
5349.78286	0.13140
5351.82321	0.12886
5353.86355	0.12527
5355.90389	0.12191
5357.94424	0.12309
5359.98458	0.13085
5362.02493	0.13769
5364.06527	0.13721
5366.10562	0.13180
5368.14596	0.12857
5370.18630	0.13130
5372.22665	0.13845
5374.26699	0.14405
5376.30734	0.14314
5378.34768	0.14309
5380.38803	0.14330
5382.42837	0.13668
5384.46871	0.13195
5386.50906	0.13426
5388.54940	0.13502
5390.58975	0.13492
5392.63009	0.13600
5394.67044	0.13943
5396.71078	0.14571
5398.75113	0.14510
5400.79147	0.13537
5402.83181	0.13091
5404.87216	0.13743
5406.91250	0.14347
5408.95285	0.14207
5410.99319	0.13654
5413.03354	0.13325
5415.07388	0.13588
5417.11422	0.14330
5419.15457	0.14696
5421.19491	0.14397
5423.23526	0.14292
5425.27560	0.14666
5427.31595	0.14775
5429.35629	0.14556
5431.39663	0.14848
5433.43698	0.15200
5435.47732	0.14775
5437.51767	0.14167
5439.55801	0.13765
5441.59836	0.13650
5443.63870	0.14390
5445.67905	0.14827
5447.71939	0.13967
5449.75973	0.13288
5451.80008	0.13480
5453.84042	0.13700
5455.88077	0.13631
5457.92111	0.13496
5459.96146	0.13340
5462.00180	0.13498
5464.04214	0.13772
5466.08249	0.13717
5468.12283	0.13716
5470.16318	0.13481
5472.20352	0.13356
5474.24387	0.14007
5476.28421	0.14432
5478.32455	0.14279
5480.36490	0.14105
5482.40524	0.13839
5484.44559	0.13898
5486.48593	0.14613
5488.52628	0.14722
5490.56662	0.13636
5492.60697	0.12734
5494.64731	0.12888
5496.68765	0.13526
5498.72800	0.13862
5500.76834	0.14138
5502.80869	0.14193
5504.84903	0.13608
5506.88938	0.13372
5508.92972	0.13498
5510.97006	0.13547
5513.01041	0.13787
5515.05075	0.13832
5517.09110	0.13627
5519.13144	0.13563
5521.17179	0.13634
5523.21213	0.13903
5525.25247	0.14508
5527.29282	0.14857
5529.33316	0.14158
5531.37351	0.12873
5533.41385	0.12595
5535.45420	0.13551
5537.49454	0.14074
5539.53488	0.13787
5541.57523	0.13564
5543.61557	0.13685
5545.65592	0.13939
5547.69626	0.14004
5549.73661	0.13665
5551.77695	0.12823
5553.81730	0.11981
5555.85764	0.12110
5557.89798	0.12870
5559.93833	0.13249
5561.97867	0.13456
5564.01902	0.13471
5566.05936	0.13189
5568.09971	0.13130
5570.14005	0.12995
5572.18039	0.12789
5574.22074	0.12942
5576.26108	0.13092
5578.30143	0.13305
5580.34177	0.13806
5582.38212	0.13838
5584.42246	0.13276
5586.46280	0.12931
5588.50315	0.12844
5590.54349	0.12926
5592.58384	0.13645
5594.62418	0.14396
5596.66453	0.14368
5598.70487	0.13766
5600.74522	0.13017
5602.78556	0.12850
5604.82590	0.13216
5606.86625	0.13495
5608.90659	0.13416
5610.94694	0.13189
5612.98728	0.13239
5615.02763	0.13619
5617.06797	0.13804
5619.10831	0.13378
5621.14866	0.12889
5623.18900	0.12914
5625.22935	0.13311
5627.26969	0.13447
5629.31004	0.13539
5631.35038	0.14012
5633.39072	0.14097
5635.43107	0.13359
5637.47141	0.13040
5639.51176	0.13491
5641.55210	0.13582
5643.59245	0.13683
5645.63279	0.14368
5647.67313	0.14800
5649.71348	0.14759
5651.75382	0.14560
5653.79417	0.14288
5655.83451	0.14090
5657.87486	0.14087
5659.91520	0.14314
5661.95555	0.14398
5663.99589	0.13710
5666.03623	0.12629
5668.07658	0.12349
5670.11692	0.12676
5672.15727	0.12665
5674.19761	0.12719
5676.23796	0.13191
5678.27830	0.13491
5680.31864	0.13319
5682.35899	0.13208
5684.39933	0.13651
5686.43968	0.14423
5688.48002	0.14888
5690.52037	0.14701
5692.56071	0.13940
5694.60105	0.12894
5696.64140	0.12474
5698.68174	0.13037
5700.72209	0.13551
5702.76243	0.13769
5704.80278	0.14061
5706.84312	0.13785
5708.88347	0.12898
5710.92381	0.12312
5712.96415	0.12438
5715.00450	0.12960
5717.04484	0.13797
5719.08519	0.14548
5721.12553	0.14309
5723.16588	0.13683
5725.20622	0.13701
5727.24656	0.14030
5729.28691	0.14122
5731.32725	0.14024
5733.36760	0.13813
5735.40794	0.13720
5737.44829	0.14101
5739.48863	0.14575
5741.52897	0.14692
5743.56932	0.14467
5745.60966	0.14105
5747.65001	0.14181
5749.69035	0.14880
5751.73070	0.15394
5753.77104	0.15108
5755.81138	0.14496
5757.85173	0.14243
5759.89207	0.14362
5761.93242	0.14419
5763.97276	0.14250
5766.01311	0.14041
5768.05345	0.13795
5770.09380	0.13448
5772.13414	0.13168
5774.17448	0.12855
5776.21483	0.12491
5778.25517	0.12593
5780.29552	0.12931
5782.33586	0.12953
5784.37621	0.13038
5786.41655	0.13319
5788.45689	0.13370
5790.49724	0.13180
5792.53758	0.12760
5794.57793	0.12306
5796.61827	0.12290
5798.65862	0.12757
5800.69896	0.13288
5802.73930	0.13674
5804.77965	0.14286
5806.81999	0.14948
5808.86034	0.14844
5810.90068	0.14060
5812.94103	0.13274
5814.98137	0.12691
5817.02172	0.12707
5819.06206	0.13429
5821.10240	0.13557
5823.14275	0.12797
5825.18309	0.12582
5827.22344	0.13193
5829.26378	0.13691
5831.30413	0.13850
5833.34447	0.14016
5835.38481	0.13873
5837.42516	0.13554
5839.46550	0.13515
5841.50585	0.13372
5843.54619	0.13411
5845.58654	0.13900
5847.62688	0.13920
5849.66722	0.13350
5851.70757	0.12911
5853.74791	0.12557
5855.78826	0.12381
5857.82860	0.12855
5859.86895	0.13647
5861.90929	0.14232
5863.94964	0.14177
5865.98998	0.13307
5868.03032	0.12403
5870.07067	0.12503
5872.11101	0.13369
5874.15136	0.13887
5876.19170	0.13734
5878.23205	0.13310
5880.27239	0.13223
5882.31273	0.13516
5884.35308	0.13483
5886.39342	0.13199
5888.43377	0.13328
5890.47411	0.13905
5892.51446	0.13989
5894.55480	0.13534
5896.59514	0.13425
5898.63549	0.13280
5900.67583	0.12991
5902.71618	0.13020
5904.75652	0.13021
5906.79687	0.12841
5908.83721	0.12701
5910.87755	0.12459
5912.91790	0.12075
5914.95824	0.12135
5916.99859	0.12652
5919.03893	0.12926
5921.07928	0.13081
5923.11962	0.13432
5925.15997	0.13506
5927.20031	0.13436
5929.24065	0.13930
5931.28100	0.14306
5933.32134	0.13791
5935.36169	0.13318
5937.40203	0.13592
5939.44238	0.14157
5941.48272	0.14582
5943.52306	0.14540
5945.56341	0.13998
5947.60375	0.13591
5949.64410	0.13220
5951.68444	0.12399
5953.72479	0.11991
5955.76513	0.12499
5957.80547	0.12949
5959.84582	0.12905
5961.88616	0.13069
5963.92651	0.13899
5965.96685	0.14479
5968.00720	0.14364
5970.04754	0.14471
5972.08789	0.14681
5974.12823	0.14540
5976.16857	0.14405
5978.20892	0.14265
5980.24926	0.13791
5982.28961	0.13510
5984.32995	0.14041
5986.37030	0.14455
5988.41064	0.14276
5990.45098	0.14034
5992.49133	0.13339
5994.53167	0.12362
5996.57202	0.11995
5998.61236	0.12274
6000.65271	0.12674
6002.69305	0.12569
6004.73339	0.12447
6006.77374	0.12561
6008.81408	0.12657
6010.85443	0.12571
6012.89477	0.12516
6014.93512	0.13095
6016.97546	0.14210
6019.01580	0.14544
6021.05615	0.13681
6023.09649	0.12941
6025.13684	0.13318
6027.17718	0.14060
6029.21753	0.13889
6031.25787	0.13373
6033.29822	0.13186
6035.33856	0.13215
6037.37890	0.13731
6039.41925	0.14199
6041.45959	0.14371
6043.49994	0.14707
6045.54028	0.14434
6047.58063	0.13552
6049.62097	0.12920
6051.66131	0.12588
6053.70166	0.12522
6055.74200	0.12482
6057.78235	0.12058
6059.82269	0.11516
6061.86304	0.11248
6063.90338	0.11098
6065.94372	0.11255
6067.98407	0.11925
6070.02441	0.12561
6072.06476	0.13015
6074.10510	0.13727
6076.14545	0.14511
6078.18579	0.14871
6080.22614	0.14273
6082.26648	0.13451
6084.30682	0.13349
6086.34717	0.13775
6088.38751	0.14148
6090.42786	0.14353
6092.46820	0.14436
6094.50855	0.14403
6096.54889	0.14224
6098.58923	0.13917
6100.62958	0.13789
6102.66992	0.13938
6104.71027	0.14073
6106.75061	0.14086
6108.79096	0.13587
6110.83130	0.12841
6112.87164	0.12764
6114.91199	0.13676
6116.95233	0.14690
6118.99268	0.14398
6121.03302	0.13568
6123.07337	0.13240
6125.11371	0.13213
6127.15405	0.13329
6129.19440	0.13264
6131.23474	0.13226
6133.27509	0.13628
6135.31543	0.14136
6137.35578	0.14140
6139.39612	0.13275
6141.43647	0.11984
6143.47681	0.11199
6145.51715	0.11169
6147.55750	0.11527
6149.59784	0.11902
6151.63819	0.12022
6153.67853	0.12686
6155.71888	0.13630
6157.75922	0.13935
6159.79956	0.13651
6161.83991	0.13379
6163.88025	0.13210
6165.92060	0.13390
6167.96094	0.13557
6170.00129	0.12748
6172.04163	0.11942
6174.08197	0.12379
6176.12232	0.13238
6178.16266	0.13217
6180.20301	0.12821
6182.24335	0.13113
6184.28370	0.13583
6186.32404	0.13760
6188.36439	0.13840
6190.40473	0.13704
6192.44507	0.13447
6194.48542	0.13319
6196.52576	0.13326
6198.56611	0.13154
6200.60645	0.12694
6202.64680	0.12331
6204.68714	0.12409
6206.72748	0.13264
6208.76783	0.14255
6210.80817	0.14340
6212.84852	0.14037
6214.88886	0.14250
6216.92921	0.14845
6218.96955	0.14912
6221.00989	0.14553
6223.05024	0.14951
6225.09058	0.14860
6227.13093	0.14160
6229.17127	0.14307
6231.21162	0.14295
6233.25196	0.13698
6235.29231	0.14229
6237.33265	0.15381
6239.37299	0.15629
6241.41334	0.15193
6243.45368	0.14259
6245.49403	0.12792
6247.53437	0.11814
6249.57472	0.12316
6251.61506	0.13505
6253.65540	0.13765
6255.69575	0.13131
6257.73609	0.12720
6259.77644	0.13140
6261.81678	0.13770
6263.85713	0.13930
6265.89747	0.13870
6267.93781	0.13855
6269.97816	0.13617
6272.01850	0.12653
6274.05885	0.12145
6276.09919	0.12851
6278.13954	0.13668
6280.17988	0.14038
6282.22022	0.13106
6284.26057	0.11573
6286.30091	0.12094
6288.34126	0.13740
6290.38160	0.13854
6292.42195	0.13410
6294.46229	0.13783
6296.50264	0.13787
6298.54298	0.13108
6300.58332	0.13083
6302.62367	0.13733
6304.66401	0.13474
6306.70436	0.12447
6308.74470	0.12016
6310.78505	0.12393
6312.82539	0.12965
6314.86573	0.13270
6316.90608	0.13247
6318.94642	0.13412
6320.98677	0.13676
6323.02711	0.13503
6325.06746	0.13154
6327.10780	0.12569
6329.14814	0.12333
6331.18849	0.12525
6333.22883	0.12100
6335.26918	0.11717
6337.30952	0.12292
6339.34987	0.13486
6341.39021	0.14396
6343.43056	0.14102
6345.47090	0.13083
6347.51124	0.12594
6349.55159	0.13328
6351.59193	0.14733
6353.63228	0.14453
6355.67262	0.12106
6357.71297	0.10267
6359.75331	0.10441
6361.79365	0.11487
6363.83400	0.12376
6365.87434	0.13310
6367.91469	0.13983
6369.95503	0.14135
6371.99538	0.13784
6374.03572	0.13714
6376.07606	0.14411
6378.11641	0.14761
6380.15675	0.14438
6382.19710	0.13947
6384.23744	0.13948
6386.27779	0.13771
6388.31813	0.12731
6390.35847	0.12263
6392.39882	0.12825
6394.43916	0.13820
6396.47951	0.15091
6398.51985	0.15523
6400.56020	0.14371
6402.60054	0.13093
6404.64089	0.13383
6406.68123	0.14375
6408.72157	0.14359
6410.76192	0.13358
6412.80226	0.12863
6414.84261	0.13306
6416.88295	0.13503
6418.92330	0.13432
6420.96364	0.13645
6423.00398	0.13788
6425.04433	0.13432
6427.08467	0.12931
6429.12502	0.12825
6431.16536	0.13228
6433.20571	0.13339
6435.24605	0.12862
6437.28639	0.12153
6439.32674	0.11664
6441.36708	0.12031
6443.40743	0.12480
6445.44777	0.12523
6447.48812	0.12897
6449.52846	0.13773
6451.56881	0.14432
6453.60915	0.14162
6455.64949	0.13596
6457.68984	0.13476
6459.73018	0.13397
6461.77053	0.12793
6463.81087	0.12342
6465.85122	0.12964
6467.89156	0.14097
6469.93190	0.14393
6471.97225	0.13454
6474.01259	0.12289
6476.05294	0.11860
6478.09328	0.11467
6480.13363	0.10598
6482.17397	0.10417
6484.21431	0.11318
6486.25466	0.12384
6488.29500	0.12888
6490.33535	0.12845
6492.37569	0.12786
6494.41604	0.12928
6496.45638	0.12882
6498.49672	0.12853
6500.53707	0.13449
6502.57741	0.13801
6504.61776	0.13179
6506.65810	0.12491
6508.69845	0.13079
6510.73879	0.14144
6512.77914	0.13476
6514.81948	0.12174
6516.85982	0.11917
6518.90017	0.11899
6520.94051	0.11386
6522.98086	0.11521
6525.02120	0.12601
6527.06155	0.13053
6529.10189	0.12953
6531.14223	0.12944
6533.18258	0.11902
6535.22292	0.10141
6537.26327	0.09479
6539.30361	0.10439
6541.34396	0.12674
6543.38430	0.14775
6545.42464	0.14797
6547.46499	0.13174
6549.50533	0.12162
6551.54568	0.12713
6553.58602	0.14057
6555.62637	0.13952
6557.66671	0.12692
6559.70706	0.12119
6561.74740	0.12297
6563.78774	0.12391
6565.82809	0.13283
6567.86843	0.14360
6569.90878	0.14143
6571.94912	0.12985
6573.98947	0.12009
6576.02981	0.11413
6578.07015	0.11885
6580.11050	0.13238
6582.15084	0.14174
6584.19119	0.14417
6586.23153	0.14282
6588.27188	0.13597
6590.31222	0.13245
6592.35256	0.13555
6594.39291	0.14094
6596.43325	0.14155
6598.47360	0.13557
6600.51394	0.13363
6602.55429	0.14020
6604.59463	0.14183
6606.63498	0.12679
6608.67532	0.11552
6610.71566	0.11852
6612.75601	0.12382
6614.79635	0.13014
6616.83670	0.12951
6618.87704	0.12264
6620.91739	0.12013
6622.95773	0.11949
6624.99807	0.12369
6627.03842	0.13137
6629.07876	0.12684
6631.11911	0.11718
6633.15945	0.11970
6635.19980	0.12468
6637.24014	0.11481
6639.28048	0.09992
6641.32083	0.10207
6643.36117	0.11268
6645.40152	0.12279
6647.44186	0.13482
6649.48221	0.13950
6651.52255	0.13195
6653.56289	0.12288
6655.60324	0.12217
6657.64358	0.12912
6659.68393	0.13947
6661.72427	0.15175
6663.76462	0.16065
6665.80496	0.16417
6667.84531	0.16845
6669.88565	0.16047
6671.92599	0.13470
6673.96634	0.12114
6676.00668	0.12370
6678.04703	0.12891
6680.08737	0.13331
6682.12772	0.14136
6684.16806	0.15489
6686.20840	0.15707
6688.24875	0.14433
6690.28909	0.13453
6692.32944	0.13466
6694.36978	0.14319
6696.41013	0.15175
6698.45047	0.15509
6700.49081	0.15351
6702.53116	0.14090
6704.57150	0.12576
6706.61185	0.12524
6708.65219	0.13241
6710.69254	0.14402
6712.73288	0.15676
6714.77323	0.15203
6716.81357	0.13469
6718.85391	0.12765
6720.89426	0.13014
6722.93460	0.12709
6724.97495	0.12578
6727.01529	0.13325
6729.05564	0.13724
6731.09598	0.13665
6733.13632	0.12966
6735.17667	0.11985
6737.21701	0.11499
6739.25736	0.11049
6741.29770	0.10538
6743.33805	0.10579
6745.37839	0.11180
6747.41873	0.12270
6749.45908	0.13191
6751.49942	0.13324
6753.53977	0.13427
6755.58011	0.14557
6757.62046	0.15447
6759.66080	0.15262
6761.70114	0.14545
6763.74149	0.13024
6765.78183	0.11077
6767.82218	0.11033
6769.86252	0.13433
6771.90287	0.14907
6773.94321	0.14302
6775.98356	0.13387
6778.02390	0.13054
6780.06424	0.13316
6782.10459	0.14040
6784.14493	0.14725
6786.18528	0.14850
6788.22562	0.13799
6790.26597	0.12674
6792.30631	0.13176
6794.34665	0.13923
6796.38700	0.13251
6798.42734	0.12247
6800.46769	0.12412
6802.50803	0.12790
6804.54838	0.12832
6806.58872	0.14030
6808.62906	0.16210
6810.66941	0.16948
6812.70975	0.15667
6814.75010	0.14761
6816.79044	0.14563
6818.83079	0.13330
6820.87113	0.12121
6822.91148	0.12441
6824.95182	0.12940
6826.99216	0.12896
6829.03251	0.12822
6831.07285	0.12940
6833.11320	0.13806
6835.15354	0.14354
6837.19389	0.13342
6839.23423	0.12121
6841.27457	0.11936
6843.31492	0.12077
6845.35526	0.12291
6847.39561	0.12065
6849.43595	0.11767
6851.47630	0.12814
6853.51664	0.15067
6855.55698	0.16655
6857.59733	0.16433
6859.63767	0.14876
6861.67802	0.12476
6863.71836	0.11119
6865.75871	0.12504
6867.79905	0.14395
6869.83939	0.14306
6871.87974	0.14121
6873.92008	0.14993
6875.96043	0.13947
6878.00077	0.10464
6880.04112	0.09587
6882.08146	0.11999
6884.12181	0.13917
6886.16215	0.14962
6888.20249	0.15413
6890.24284	0.15642
6892.28318	0.16296
6894.32353	0.16151
6896.36387	0.13714
6898.40422	0.11105
6900.44456	0.11195
6902.48490	0.13118
6904.52525	0.14167
6906.56559	0.14522
6908.60594	0.14658
6910.64628	0.13430
6912.68663	0.12498
6914.72697	0.12454
6916.76731	0.12070
6918.80766	0.12172
6920.84800	0.13278
6922.88835	0.13744
6924.92869	0.13575
6926.96904	0.13030
6929.00938	0.13099
6931.04973	0.13245
6933.09007	0.12853
6935.13041	0.13205
6937.17076	0.13822
6939.21110	0.14000
6941.25145	0.14659
6943.29179	0.15777
6945.33214	0.16078
6947.37248	0.14951
6949.41282	0.13132
6951.45317	0.12142
6953.49351	0.11811
6955.53386	0.11592
6957.57420	0.12363
6959.61455	0.13951
6961.65489	0.14300
6963.69523	0.14500
6965.73558	0.15745
6967.77592	0.15913
6969.81627	0.13317
6971.85661	0.11745
6973.89696	0.13005
6975.93730	0.13589
6977.97765	0.12232
6980.01799	0.10770
6982.05833	0.10382
6984.09868	0.11235
6986.13902	0.12646
6988.17937	0.12974
6990.21971	0.12769
6992.26006	0.12508
6994.30040	0.11449
6996.34074	0.12013
6998.38109	0.14937
7000.42143	0.16281
7002.46178	0.15196
7004.50212	0.13771
7006.54247	0.12602
7008.58281	0.10745
7010.62315	0.09815
7012.66350	0.11139
7014.70384	0.12182
7016.74419	0.13289
7018.78453	0.15021
7020.82488	0.16554
7022.86522	0.16715
7024.90556	0.14301
7026.94591	0.11567
7028.98625	0.11636
7031.02660	0.13966
7033.06694	0.15860
7035.10729	0.15707
7037.14763	0.14935
7039.18798	0.13708
7041.22832	0.12279
7043.26866	0.12015
7045.30901	0.12145
7047.34935	0.11684
7049.38970	0.11765
7051.43004	0.13187
7053.47039	0.14564
7055.51073	0.14313
7057.55107	0.14553
7059.59142	0.16073
7061.63176	0.16006
7063.67211	0.15148
7065.71245	0.15662
7067.75280	0.15654
7069.79314	0.13418
7071.83348	0.11261
7073.87383	0.12586
7075.91417	0.15343
7077.95452	0.15540
7079.99486	0.14622
7082.03521	0.13932
7084.07555	0.12974
7086.11590	0.11766
7088.15624	0.11846
7090.19658	0.13600
7092.23693	0.15382
7094.27727	0.17661
7096.31762	0.17992
7098.35796	0.14603
7100.39831	0.13493
7102.43865	0.15673
7104.47899	0.17330
7106.51934	0.17090
7108.55968	0.16111
7110.60003	0.14706
7112.64037	0.13449
7114.68072	0.12777
7116.72106	0.11532
7118.76140	0.10915
7120.80175	0.12310
7122.84209	0.13073
7124.88244	0.12943
7126.92278	0.14186
7128.96313	0.15489
7131.00347	0.14892
7133.04381	0.13125
7135.08416	0.13249
7137.12450	0.16271
7139.16485	0.18331
7141.20519	0.16782
7143.24554	0.14622
7145.28588	0.14973
7147.32623	0.17176
7149.36657	0.17266
7151.40691	0.14085
7153.44726	0.11838
7155.48760	0.12658
7157.52795	0.14446
7159.56829	0.14067
7161.60864	0.09525
7163.64898	0.04704
7165.68932	0.04458
7167.72967	0.07745
7169.77001	0.10586
7171.81036	0.12814
7173.85070	0.13648
7175.89105	0.13459
7177.93139	0.12581
7179.97173	0.13167
7182.01208	0.16298
7184.05242	0.18732
7186.09277	0.19459
7188.13311	0.18633
7190.17346	0.15315
7192.21380	0.11240
7194.25415	0.09757
7196.29449	0.11818
7198.33483	0.14639
7200.37518	0.14895
7202.41552	0.13856
7204.45587	0.13388
7206.49621	0.13034
7208.53656	0.12460
7210.57690	0.11154
7212.61724	0.08768
7214.65759	0.09522
7216.69793	0.12006
7218.73828	0.13968
7220.77862	0.16278
7222.81897	0.18499
7224.85931	0.20214
7226.89965	0.20574
7228.94000	0.18458
7230.98034	0.14219
7233.02069	0.11859
7235.06103	0.12036
7237.10138	0.12091
7239.14172	0.12923
7241.18206	0.13790
7243.22241	0.13630
7245.26275	0.15171
7247.30310	0.17416
7249.34344	0.15694
7251.38379	0.10386
7253.42413	0.08121
7255.46448	0.09965
7257.50482	0.13223
7259.54516	0.13152
7261.58551	0.11721
7263.62585	0.12652
7265.66620	0.14552
7267.70654	0.15999
7269.74689	0.14572
7271.78723	0.11685
7273.82757	0.15779
7275.86792	0.20427
7277.90826	0.19009
7279.94861	0.16143
7281.98895	0.14652
7284.02930	0.14294
7286.06964	0.14528
7288.10998	0.17350
7290.15033	0.22690
7292.19067	0.25864
7294.23102	0.24137
7296.27136	0.20431
7298.31171	0.17006
7300.35205	0.15411
7302.39240	0.15588
7304.43274	0.15101
7306.47308	0.14052
7308.51343	0.13272
7310.55377	0.12276
7312.59412	0.13379
7314.63446	0.15831
7316.67481	0.19002
7318.71515	0.20634
7320.75549	0.18045
7322.79584	0.14325
7324.83618	0.14505
7326.87653	0.17783
7328.91687	0.18171
7330.95722	0.15800
7332.99756	0.15733
7335.03790	0.16157
7337.07825	0.14528
7339.11859	0.13637
7341.15894	0.15036
7343.19928	0.15734
7345.23963	0.15194
7347.27997	0.14789
7349.32032	0.16953
7351.36066	0.19701
7353.40100	0.19189
7355.44135	0.16945
7357.48169	0.16387
7359.52204	0.17433
7361.56238	0.18268
7363.60273	0.16145
7365.64307	0.12601
7367.68341	0.10979
7369.72376	0.12211
7371.76410	0.14305
7373.80445	0.14170
7375.84479	0.12981
7377.88514	0.13615
7379.92548	0.14735
7381.96582	0.15434
7384.00617	0.17128
7386.04651	0.16929
7388.08686	0.15644
7390.12720	0.14187
7392.16755	0.13377
7394.20789	0.13901
7396.24823	0.14215
7398.28858	0.18547
7400.32892	0.16786
7402.36927	0.12264
7404.40961	0.14610
7406.44996	0.16828
7408.49030	0.14994
7410.53065	0.15953
7412.57099	0.17589
7414.61133	0.15059
7416.65168	0.13555
7418.69202	0.13177
7420.73237	0.11712
7422.77271	0.11131
7424.81306	0.11847
7426.85340	0.15977
7428.89374	0.21704
7430.93409	0.20411
7432.97443	0.14350
7435.01478	0.14507
7437.05512	0.16057
7439.09547	0.14904
7441.13581	0.14711
7443.17615	0.14355
7445.21650	0.15793
7447.25684	0.19177
7449.29719	0.17415
7451.33753	0.12401
7453.37788	0.11141
7455.41822	0.13329
7457.45857	0.16310
7459.49891	0.17195
7461.53925	0.15840
7463.57960	0.16354
7465.61994	0.15971
7467.66029	0.16896
7469.70063	0.21627
7471.74098	0.20011
7473.78132	0.12778
7475.82166	0.06176
7477.86201	0.06146
7479.90235	0.16815
7481.94270	0.24697
7483.98304	0.22982
7486.02339	0.15379
7488.06373	0.11367
7490.10407	0.14028
7492.14442	0.21156
7494.18476	0.26209
7496.22511	0.26811
7498.26545	0.24730
7500.30580	0.23487
7502.34614	0.23531
7504.38648	0.22041
7506.42683	0.18012
7508.46717	0.15910
7510.50752	0.16740
7512.54786	0.16640
7514.58821	0.14681
7516.62855	0.13970
7518.66890	0.16202
7520.70924	0.13521
7522.74958	0.10910
7524.78993	0.09002
7526.83027	0.09040
7528.87062	0.13523
7530.91096	0.16554
7532.95131	0.17119
7534.99165	0.17010
7537.03199	0.18288
7539.07234	0.17951
7541.11268	0.14149
7543.15303	0.12771
7545.19337	0.13913
7547.23372	0.16937
7549.27406	0.20268
7551.31440	0.14963
7553.35475	0.09021
7555.39509	0.06441
7557.43544	0.04645
7559.47578	0.12566
7561.51613	0.13335
7563.55647	0.15585
7565.59682	0.20479
7567.63716	0.24342
7569.67750	0.24813
7571.71785	0.21444
7573.75819	0.15808
7575.79854	0.10946
7577.83888	0.10519
7579.87923	0.07793
7581.91957	0.01685
7583.95991	0.04580
7586.00026	0.06527
7588.04060	0.07327
7590.08095	0.09072
7592.12129	0.13864
7594.16164	0.22463
7596.20198	0.25819
7598.24232	0.20439
7600.28267	0.09323
7602.32301	0.02405
7604.36336	0.09100
7606.40370	0.16182
7608.44405	0.19295
7610.48439	0.24876
7612.52473	0.26136
7614.56508	0.20104
7616.60542	0.12772
7618.64577	0.11172
7620.68611	0.14644
7622.72646	0.17533
7624.76680	0.15011
7626.80715	0.10887
7628.84749	0.14245
7630.88783	0.20804
7632.92818	0.22072
7634.96852	0.14055
7637.00887	0.10782
7639.04921	0.11482
7641.08956	0.16457
7643.12990	0.28461
7645.17024	0.36062
7647.21059	0.34294
7649.25093	0.26550
7651.29128	0.19013
7653.33162	0.18865
7655.37197	0.24613
7657.41231	0.27529
7659.45265	0.23328
7661.49300	0.11574
7663.53334	0.05032
7665.57369	0.11350
7667.61403	0.22077
7669.65438	0.25692
7671.69472	0.17958
7673.73507	0.09421
7675.77541	0.08871
7677.81575	0.12647
7679.85610	0.12747
7681.89644	0.12718
7683.93679	0.09316
7685.97713	0.10245
7688.01748	0.15005
7690.05782	0.17496
7692.09816	0.24172
7694.13851	0.22101
7696.17885	0.10066
7698.21920	0.05098
7700.25954	0.07885
7702.29989	0.15144
7704.34023	0.19929
7706.38057	0.17290
7708.42092	0.11628
7710.46126	0.05435
7712.50161	0.01608
7714.54195	0.11628
7716.58230	0.19710
7718.62264	0.22642
7720.66298	0.25326
7722.70333	0.23526
7724.74367	0.24338
7726.78402	0.34131
7728.82436	0.40047
7730.86471	0.36347
7732.90505	0.26817
7734.94540	0.20277
7736.98574	0.22615
7739.02608	0.24445
7741.06643	0.24082
7743.10677	0.21859
7745.14712	0.19906
7747.18746	0.19257
7749.22781	0.25835
7751.26815	0.30944
7753.30849	0.30844
7755.34884	0.26454
7757.38918	0.19452
7759.42953	0.17300
7761.46987	0.29470
7763.51022	0.27725
7765.55056	0.17872
7767.59090	0.15413
7769.63125	0.18659
7771.67159	0.25773
7773.71194	0.32420
7775.75228	0.32062
7777.79263	0.21181
7779.83297	0.09602
7781.87332	0.12592
7783.91366	0.02175
7785.95400	0.08281
7787.99435	0.12791
7790.03469	0.21232
7792.07504	0.36427
7794.11538	0.45446
7796.15573	0.41715
7798.19607	0.27124
7800.23641	0.10879
7802.27676	0.06335
7804.31710	0.11714
7806.35745	0.09457
7808.39779	0.07231
7810.43814	0.12712
7812.47848	0.09336
7814.51882	0.12080
7816.55917	0.20468
7818.59951	0.25574
7820.63986	0.29929
7822.68020	0.28200
7824.72055	0.17378
7826.76089	0.10127
7828.80124	0.08626
7830.84158	0.02366
7832.88192	0.15853
7834.92227	0.29537
7836.96261	0.31611
7839.00296	0.28337
7841.04330	0.33780
7843.08365	0.32174
7845.12399	0.20186
7847.16433	0.22411
7849.20468	0.24000
7851.24502	0.21694
7853.28537	0.17967
7855.32571	0.19153
7857.36606	0.19008
7859.40640	0.13434
7861.44674	0.16765
7863.48709	0.14474
7865.52743	0.09296
7867.56778	0.19782
7869.60812	0.35986
7871.64847	0.31669
7873.68881	0.16146
7875.72915	0.06916
7877.76950	0.08922
7879.80984	0.06693
7881.85019	0.05335
7883.89053	0.24795
7885.93088	0.31310
7887.97122	0.23504
7890.01157	0.18631
7892.05191	0.08630
7894.09225	0.10231
7896.13260	0.15785
7898.17294	0.14147
7900.21329	0.28346
7902.25363	0.37636
7904.29398	0.41666
7906.33432	0.36840
7908.37466	0.27261
7910.41501	0.19375
7912.45535	0.18311
7914.49570	0.20489
7916.53604	0.27775
7918.57639	0.35071
7920.61673	0.29508
7922.65707	0.19193
7924.69742	0.25237
7926.73776	0.21673
7928.77811	0.08633
7930.81845	0.05759
7932.85880	0.08559
7934.89914	0.21893
7936.93949	0.35851
7938.97983	0.31631
7941.02017	0.13412
7943.06052	0.17398
7945.10086	0.30060
7947.14121	0.25108
7949.18155	0.27442
7951.22190	0.29970
7953.26224	0.25175
7955.30258	0.28778
7957.34293	0.31560
7959.38327	0.28472
7961.42362	0.13958
7963.46396	0.10963
7965.50431	0.22158
7967.54465	0.16288
7969.58499	0.09030
7971.62534	0.21131
7973.66568	0.28753
7975.70603	0.19408
7977.74637	0.06773
7979.78672	0.08233
7981.82706	0.14918
7983.86740	0.24083
7985.90775	0.24699
7987.94809	0.33879
7989.98844	0.47532
7992.02878	0.45959
7994.06913	0.20511
7996.10947	0.09590
